,Head,Face,Body,Skin,Background,Rarity score,Token Id
0,1.0669260299149776,0.6305537340108577,1.014602253400359,1.5813711134066848,0.9354138548605656,5.228866985593445,0
1,1.459483232684759,1.224123109650942,1.1963276574228012,0.9186501417080408,0.9976018228569148,5.796185964323458,1
2,1.1029434388868302,0.644858734940786,0.983018489191347,0.49371306331050674,0.8133000475488733,4.037833773878344,2
3,1.1029434388868302,0.680951732957988,0.7741705870255384,1.2474983049951964,0.8133000475488733,4.618864111414426,3
4,0.8952628959050906,1.187099095268231,1.2293940726192063,1.2474983049951964,1.242499879669392,5.801754248457117,4
5,1.004316248911696,0.9723825417014988,1.0017227098518153,0.49371306331050674,0.9354138548605656,4.4075484186360825,5
6,1.096764396645492,1.224123109650942,0.995407615147645,1.2474983049951964,1.006275259671987,5.570068686111263,6
7,0.7415558911378783,0.9723825417014988,0.8966916327974446,0.49371306331050674,0.9976018228569148,4.101944951804243,7
8,1.459483232684759,2.0192837802501344,0.9860861396632304,0.9186501417080408,0.8891451424204175,6.272648436726582,8
9,1.0786552526137378,1.0707486024508723,1.0278258896034682,1.3044418738516306,0.9976018228569148,5.479273441376623,9
10,0.9054819396985982,0.6305537340108577,0.9985549485209781,1.3044418738516306,0.8133000475488733,4.652332543630938,10
11,0.8529450192313964,0.8786595995448542,1.1273105919010336,0.49371306331050674,1.2772224050135144,4.629850679001305,11
12,0.9794024887283261,1.3145966911859206,0.7741705870255384,0.9186501417080408,0.9976018228569148,4.9844217315047405,12
13,0.8993222411175086,0.644858734940786,0.9860861396632304,0.8527291577815652,0.8133000475488733,4.196296321051964,13
14,0.9054819396985982,1.0336291632459487,0.7837277394877064,1.2474983049951964,0.9354138548605656,4.9057510022880155,14
15,0.8529450192313964,0.6305537340108577,0.7741705870255384,0.49371306331050674,1.2772224050135144,4.028604808591814,15
16,1.0669260299149776,0.7390315309170211,1.2293940726192063,0.49371306331050674,0.8133000475488733,4.3423647443105855,16
17,1.0786552526137378,1.185395247776377,0.995407615147645,0.49371306331050674,0.9354138548605656,4.688585033708832,17
18,0.91172812023612,0.680951732957988,1.2593125970044623,0.8527291577815652,1.006275259671987,4.710996867652122,18
19,1.1060604795039815,1.185395247776377,0.8374960112727121,1.3044418738516306,0.9976018228569148,5.430995435261616,19
20,1.0786552526137378,0.6305537340108577,1.3297682341358856,1.328136074822748,1.006275259671987,5.373388555255216,20
21,0.7333463771421802,1.0707486024508723,0.7197425117548176,1.3044418738516306,1.242499879669392,5.070779244868893,21
22,0.8474858648967548,1.185395247776377,0.9985549485209781,1.328136074822748,0.8891451424204175,5.248717278437276,22
23,1.459483232684759,0.7390315309170211,0.7741705870255384,0.49371306331050674,0.8133000475488733,4.279698461486698,23
24,0.8263362515770558,0.680951732957988,0.9228081684095735,0.49371306331050674,1.1591848381010954,4.08299405435622,24
25,0.8584756847933248,0.6305537340108577,0.8159628348153366,2.8073345844820112,0.8891451424204175,6.0014719805219485,25
26,1.004316248911696,0.6305537340108577,0.983018489191347,0.9186501417080408,0.9976018228569148,4.5341404366788565,26
27,1.004316248911696,0.6305537340108577,1.1963276574228012,1.714617047551628,0.9976018228569148,5.5434165107538975,27
28,0.7306498956473502,1.187099095268231,0.7837277394877064,1.5813711134066848,1.006275259671987,5.289123103481959,28
29,1.459483232684759,1.9184128429683642,0.942027421367467,1.2239985401299938,0.9354138548605656,6.47933589201115,29
30,0.8993222411175086,0.6305537340108577,0.9860861396632304,1.2474983049951964,1.006275259671987,4.76973567945878,30
31,0.8263362515770558,1.5219777046726715,0.8397123049364641,1.2239985401299938,1.242499879669392,5.654524680985578,31
32,0.7415558911378783,1.3963241766340975,0.8180659989575508,0.49371306331050674,1.2772224050135144,4.726881535053547,32
33,0.9159412351297077,1.3963241766340975,0.8159628348153366,1.328136074822748,1.1591848381010954,5.615549159502985,33
34,0.7306498956473502,0.644858734940786,0.8966916327974446,0.9186501417080408,0.8891451424204175,4.079995547514039,34
35,1.1029434388868302,1.3253157407797715,0.995407615147645,1.5813711134066848,0.9354138548605656,5.940451763081497,35
36,0.8474858648967548,0.7390315309170211,0.8792822880152499,0.9186501417080408,1.006275259671987,4.390725085209054,36
37,0.7306498956473502,0.8786595995448542,0.9985549485209781,2.487093984006915,0.9354138548605656,6.030372282580664,37
38,1.0786552526137378,0.644858734940786,0.9228081684095735,0.49371306331050674,1.006275259671987,4.1463104789465905,38
39,0.9159412351297077,1.3340296860184395,0.9228081684095735,1.2239985401299938,0.9354138548605656,5.3321914845482805,39
40,0.7306498956473502,0.680951732957988,0.7197425117548176,0.9186501417080408,1.242499879669392,4.292494161737588,40
41,0.9054819396985982,1.3963241766340975,0.8792822880152499,0.49371306331050674,0.9976018228569148,4.6724032905153665,41
42,0.8584756847933248,0.680951732957988,0.9533796846021256,0.49371306331050674,0.8133000475488733,3.7998202132128185,42
43,1.1029434388868302,1.0585207482429286,1.014602253400359,1.2474983049951964,0.8133000475488733,5.236864793074187,43
44,0.8993222411175086,1.3145966911859206,0.9679678510471255,1.2474983049951964,0.9976018228569148,5.426986911202666,44
45,1.038734217647062,1.0336291632459487,0.7837277394877064,1.3044418738516306,0.8133000475488733,4.973833041781221,45
46,1.1060604795039815,0.6305537340108577,0.7837277394877064,0.49371306331050674,0.9976018228569148,4.011656839169967,46
47,0.8993222411175086,0.644858734940786,0.9228081684095735,0.9186501417080408,0.8133000475488733,4.198939333724782,47
48,1.0068797947240453,1.3253157407797715,0.7575418363196272,0.9186501417080408,0.9354138548605656,4.943801368392051,48
49,0.8993222411175086,1.0707486024508723,0.9533796846021256,0.49371306331050674,0.8891451424204175,4.306308733901431,49
50,0.8678564027278923,2.0192837802501344,0.7741705870255384,1.328136074822748,0.8891451424204175,5.878591987246731,50
51,0.8584756847933248,1.3963241766340975,0.9228081684095735,0.49371306331050674,0.8133000475488733,4.484621140696375,51
52,0.8622032507673212,0.8786595995448542,1.3297682341358856,1.328136074822748,0.8133000475488733,5.212067206819682,52
53,0.8993222411175086,1.0585207482429286,1.5789660261803067,0.9186501417080408,1.1591848381010954,5.61464399534988,53
54,0.9794024887283261,2.043794772464461,0.8992357508663648,0.9186501417080408,0.9354138548605656,5.776497008627758,54
55,1.096764396645492,0.680951732957988,0.7197425117548176,0.49371306331050674,0.9354138548605656,3.92658555952937,55
56,0.9054819396985982,0.9723825417014988,0.9860861396632304,1.2239985401299938,0.8133000475488733,4.901249208742194,56
57,1.459483232684759,0.6305537340108577,0.983018489191347,1.328136074822748,1.242499879669392,5.643691410379104,57
58,0.8474858648967548,1.0336291632459487,1.3297682341358856,0.49371306331050674,0.8133000475488733,4.517896373137969,58
59,0.8403157580196393,0.8786595995448542,0.7197425117548176,1.714617047551628,0.8891451424204175,5.042480059291357,59
60,0.8952628959050906,1.224123109650942,0.9069565302484662,1.5813711134066848,1.1591848381010954,5.766898487312279,60
61,0.7415558911378783,0.6305537340108577,0.7915450433096987,0.49371306331050674,0.9354138548605656,3.5927815866295068,61
62,0.7333463771421802,2.043794772464461,0.942027421367467,1.714617047551628,0.9354138548605656,6.369199473386302,62
63,1.1060604795039815,1.3963241766340975,0.8792822880152499,1.2239985401299938,0.9354138548605656,5.541079339143889,63
64,0.8993222411175086,0.680951732957988,0.7197425117548176,1.3044418738516306,1.006275259671987,4.6107336193539314,64
65,1.038734217647062,0.680951732957988,1.014602253400359,0.49371306331050674,1.006275259671987,4.234276526987903,65
66,0.9054819396985982,1.0585207482429286,0.9533796846021256,0.49371306331050674,0.8133000475488733,4.224395483403033,66
67,1.459483232684759,1.185395247776377,1.1273105919010336,1.3044418738516306,0.9976018228569148,6.074232769070715,67
68,0.9096363332414507,0.7390315309170211,0.9922805039872016,0.49371306331050674,0.8891451424204175,4.023806573876597,68
69,0.9096363332414507,1.3340296860184395,1.0017227098518153,0.8527291577815652,0.8133000475488733,4.911417934442143,69
70,0.8584756847933248,0.644858734940786,0.7995199917810841,0.8527291577815652,0.8133000475488733,3.968883616845633,70
71,1.459483232684759,0.6305537340108577,0.983018489191347,0.49371306331050674,1.1591848381010954,4.725953357298566,71
72,1.453785246075457,1.185395247776377,0.7837277394877064,0.49371306331050674,1.006275259671987,4.9228965563220335,72
73,0.8993222411175086,0.644858734940786,0.8397123049364641,0.49371306331050674,0.8891451424204175,3.766751486725683,73
74,1.453785246075457,1.0707486024508723,0.8397123049364641,0.8527291577815652,0.9354138548605656,5.152389166104924,74
75,1.459483232684759,1.3963241766340975,0.9860861396632304,0.9186501417080408,0.8891451424204175,5.649688833110545,75
76,0.7333463771421802,0.9723825417014988,1.1963276574228012,0.8527291577815652,1.1591848381010954,4.913970572149141,76
77,0.8403157580196393,0.7390315309170211,0.942027421367467,3.067375709817439,0.8891451424204175,6.477895562541984,77
78,1.453785246075457,1.5219777046726715,0.8966916327974446,2.487093984006915,0.8133000475488733,7.172848615101361,78
79,0.8952628959050906,1.224123109650942,0.95916088366761,0.8527291577815652,0.8133000475488733,4.744576094554081,79
80,0.9054819396985982,0.7390315309170211,0.8966916327974446,2.8073345844820112,0.9354138548605656,6.283953542755641,80
81,0.9096363332414507,0.680951732957988,0.8159628348153366,1.714617047551628,0.8133000475488733,4.934467996115277,81
82,0.8529450192313964,0.644858734940786,0.9985549485209781,0.49371306331050674,0.9354138548605656,3.9254856208642326,82
83,0.7415558911378783,1.0585207482429286,0.7197425117548176,0.49371306331050674,1.006275259671987,4.019807474118118,83
84,0.9159412351297077,1.0585207482429286,0.7197425117548176,1.2474983049951964,0.8891451424204175,4.830847942543068,84
85,2.031160474139723,0.9723825417014988,0.983018489191347,0.49371306331050674,0.8133000475488733,5.2935746158919486,85
86,0.8403157580196393,0.680951732957988,0.95916088366761,1.5813711134066848,1.1591848381010954,5.220984326153017,86
87,1.453785246075457,0.680951732957988,0.7741705870255384,0.49371306331050674,1.2772224050135144,4.679843034383005,87
88,0.8716670416259484,1.0336291632459487,0.7575418363196272,0.9186501417080408,0.9976018228569148,4.57909000575648,88
89,1.7768239455424892,0.680951732957988,0.8397123049364641,0.9186501417080408,0.9976018228569148,5.213739948001897,89
90,1.0669260299149776,1.3145966911859206,1.3963657634714146,1.2474983049951964,0.9976018228569148,6.022988612424424,90
91,1.453785246075457,0.7390315309170211,1.50739414083809,0.9186501417080408,0.9354138548605656,5.554274914399175,91
92,0.8584756847933248,0.9723825417014988,0.8966916327974446,1.2239985401299938,1.006275259671987,4.957823659094249,92
93,0.7333463771421802,1.3963241766340975,1.4495502049215274,0.8527291577815652,0.8891451424204175,5.321095058899788,93
94,0.9159412351297077,0.644858734940786,1.3297682341358856,0.9186501417080408,0.9976018228569148,4.806820168771335,94
95,0.8529450192313964,0.7390315309170211,0.8180659989575508,0.8527291577815652,0.8891451424204175,4.151916849307951,95
96,1.706851280063953,0.9723825417014988,1.6587356880978406,1.2474983049951964,1.1591848381010954,6.744652652959584,96
97,0.7415558911378783,1.0336291632459487,1.1607487459068544,1.2474983049951964,1.2772224050135144,5.460654510299392,97
98,0.91172812023612,0.6305537340108577,0.9985549485209781,0.49371306331050674,1.1591848381010954,4.193734704179558,98
99,1.1029434388868302,1.224123109650942,0.8180659989575508,0.9186501417080408,1.006275259671987,5.07005794887535,99
100,1.459483232684759,1.3473389003100178,0.9860861396632304,0.8527291577815652,0.9976018228569148,5.643239253296487,100
101,0.9794024887283261,0.9723825417014988,0.7741705870255384,1.3044418738516306,1.242499879669392,5.272897370976386,101
102,0.9138297299193745,1.0585207482429286,0.995407615147645,1.2474983049951964,0.9354138548605656,5.1506702531657105,102
103,0.9096363332414507,0.644858734940786,1.3297682341358856,0.49371306331050674,1.2772224050135144,4.655198770642143,103
104,0.8716670416259484,2.043794772464461,0.8159628348153366,0.9186501417080408,0.8133000475488733,5.46337483816266,104
105,0.8263362515770558,0.6305537340108577,1.1963276574228012,1.2474983049951964,0.9354138548605656,4.836129802866477,105
106,0.8993222411175086,0.680951732957988,0.95916088366761,0.49371306331050674,0.9976018228569148,4.030749743910528,106
107,0.7333463771421802,0.6305537340108577,0.9228081684095735,0.49371306331050674,0.8891451424204175,3.6695664852935357,107
108,1.0786552526137378,1.224123109650942,0.7575418363196272,0.8527291577815652,0.8891451424204175,4.80219449878629,108
109,0.9159412351297077,0.7390315309170211,1.014602253400359,2.8073345844820112,1.1591848381010954,6.636094442030194,109
110,1.459483232684759,1.3340296860184395,0.9228081684095735,0.49371306331050674,1.006275259671987,5.216309410095265,110
111,0.9096363332414507,1.185395247776377,0.7915450433096987,0.8527291577815652,0.8133000475488733,4.552605829657965,111
112,1.0786552526137378,1.187099095268231,1.3297682341358856,1.2239985401299938,1.2772224050135144,6.096743527161363,112
113,1.1029434388868302,0.644858734940786,0.9985549485209781,0.8527291577815652,0.8133000475488733,4.412386327679033,113
114,1.0669260299149776,1.224123109650942,1.2293940726192063,1.2474983049951964,1.1591848381010954,5.927126355281418,114
115,0.8622032507673212,2.043794772464461,1.4092597305900636,1.2474983049951964,1.006275259671987,6.56903131848903,115
116,0.8952628959050906,0.8786595995448542,0.95916088366761,0.8527291577815652,0.8133000475488733,4.399112584447994,116
117,1.1060604795039815,0.7390315309170211,1.4092597305900636,1.5813711134066848,0.9354138548605656,5.771136709278317,117
118,0.7333463771421802,2.407018538507616,0.9228081684095735,0.49371306331050674,0.9354138548605656,5.492300002230443,118
119,0.9054819396985982,0.8786595995448542,0.95916088366761,0.49371306331050674,0.8133000475488733,4.050315533770442,119
120,0.7333463771421802,1.3145966911859206,1.3297682341358856,1.5813711134066848,1.242499879669392,6.201582295540063,120
121,1.459483232684759,0.7390315309170211,0.9922805039872016,1.3044418738516306,1.2772224050135144,5.772459546454127,121
122,0.8403157580196393,1.224123109650942,0.942027421367467,1.328136074822748,1.006275259671987,5.3408776235327835,122
123,0.8622032507673212,1.3340296860184395,0.8159628348153366,0.9186501417080408,1.2772224050135144,5.208068318322653,123
124,0.9054819396985982,1.0707486024508723,1.1273105919010336,0.9186501417080408,0.9976018228569148,5.019793098615459,124
125,0.8678564027278923,1.0707486024508723,0.7915450433096987,0.49371306331050674,0.8891451424204175,4.1130082542193875,125
126,0.8952628959050906,1.0336291632459487,0.9679678510471255,1.2239985401299938,0.9976018228569148,5.1184602731850735,126
127,0.8529450192313964,0.680951732957988,1.3297682341358856,1.2474983049951964,1.1591848381010954,5.270348129421562,127
128,0.8993222411175086,0.7390315309170211,1.3297682341358856,1.714617047551628,1.006275259671987,5.689014313394031,128
129,0.8529450192313964,0.9723825417014988,1.9017796935194327,0.49371306331050674,1.006275259671987,5.227095577434822,129
130,1.096764396645492,0.644858734940786,0.983018489191347,1.5813711134066848,0.8133000475488733,5.119312781733183,130
131,1.0669260299149776,0.7390315309170211,0.7197425117548176,0.49371306331050674,0.9976018228569148,4.017014958754238,131
132,1.004316248911696,1.0336291632459487,0.7197425117548176,1.5813711134066848,1.006275259671987,5.345334296991135,132
133,0.91172812023612,0.9723825417014988,0.7995199917810841,0.49371306331050674,1.1591848381010954,4.336528555130306,133
134,1.0786552526137378,0.8786595995448542,0.8992357508663648,0.8527291577815652,0.9976018228569148,4.706881583663437,134
135,1.096764396645492,0.8786595995448542,0.8397123049364641,0.8527291577815652,1.2772224050135144,4.94508786392189,135
136,1.004316248911696,0.644858734940786,1.3297682341358856,1.3044418738516306,0.9976018228569148,5.280986914696913,136
137,0.9054819396985982,1.5219777046726715,1.014602253400359,1.328136074822748,1.242499879669392,6.012697852263769,137
138,0.8263362515770558,0.680951732957988,0.7197425117548176,1.2474983049951964,1.242499879669392,4.71702868095445,138
139,0.9138297299193745,0.6305537340108577,0.8159628348153366,0.49371306331050674,0.9976018228569148,3.8516611849129907,139
140,1.3167986539728664,1.5219777046726715,1.3297682341358856,1.3044418738516306,1.2772224050135144,6.750208871646569,140
141,0.9794024887283261,0.644858734940786,1.0414082901549084,0.49371306331050674,1.2772224050135144,4.436604982148042,141
142,1.3167986539728664,1.5902529024739913,0.9228081684095735,1.3044418738516306,0.8133000475488733,5.947601646256935,142
143,1.6665108674974691,0.6305537340108577,1.0017227098518153,1.2239985401299938,1.006275259671987,5.5290611111621235,143
144,0.8993222411175086,1.3340296860184395,0.9679678510471255,1.328136074822748,0.8891451424204175,5.41860099542624,144
145,0.9794024887283261,0.9723825417014988,0.8992357508663648,0.9186501417080408,0.8133000475488733,4.582970970553104,145
146,0.8263362515770558,0.8786595995448542,0.7197425117548176,1.2474983049951964,1.2772224050135144,4.949459072885439,146
147,0.8403157580196393,1.0707486024508723,0.9922805039872016,1.5813711134066848,1.242499879669392,5.72721585753379,147
148,1.1060604795039815,2.0192837802501344,0.95916088366761,0.8527291577815652,0.8133000475488733,5.750534348752165,148
149,0.8529450192313964,1.0707486024508723,0.9533796846021256,0.49371306331050674,0.8891451424204175,4.259931512015319,149
150,1.459483232684759,0.644858734940786,0.8374960112727121,0.49371306331050674,1.1591848381010954,4.594735880309859,150
151,0.8952628959050906,0.7390315309170211,0.9069565302484662,0.9186501417080408,0.9354138548605656,4.3953149536391845,151
152,0.8622032507673212,1.3473389003100178,0.9505156024819665,1.2239985401299938,0.8891451424204175,5.2732014361097175,152
153,0.7306498956473502,1.0585207482429286,0.7915450433096987,0.49371306331050674,1.2772224050135144,4.3516511555239985,153
154,1.459483232684759,1.0336291632459487,0.8374960112727121,0.49371306331050674,0.9976018228569148,4.821923293370841,154
155,1.4652325026195927,0.644858734940786,1.3297682341358856,1.3044418738516306,0.8133000475488733,5.5576013930967685,155
156,1.038734217647062,0.6305537340108577,0.7915450433096987,0.8527291577815652,0.8891451424204175,4.202707295169601,156
157,0.7306498956473502,0.7390315309170211,0.7197425117548176,1.328136074822748,0.9354138548605656,4.452973868002503,157
158,0.8678564027278923,0.9723825417014988,0.8397123049364641,0.8527291577815652,0.8133000475488733,4.345980454696294,158
159,0.7306498956473502,0.7390315309170211,1.3963657634714146,0.9186501417080408,0.8133000475488733,4.597997379292701,159
160,0.8263362515770558,0.8786595995448542,0.9505156024819665,0.9186501417080408,0.9976018228569148,4.571763418168833,160
161,0.8622032507673212,1.0336291632459487,0.9505156024819665,2.8073345844820112,0.9354138548605656,6.589096455837813,161
162,0.7415558911378783,1.3473389003100178,1.1273105919010336,0.8527291577815652,0.8133000475488733,4.882234588679369,162
163,0.8993222411175086,0.680951732957988,0.9533796846021256,0.49371306331050674,1.1591848381010954,4.1865515600892245,163
164,1.459483232684759,0.644858734940786,0.7741705870255384,1.5813711134066848,1.006275259671987,5.466158927729756,164
165,0.8952628959050906,1.3253157407797715,0.7837277394877064,0.49371306331050674,0.9976018228569148,4.49562126233999,165
166,0.91172812023612,1.0585207482429286,0.942027421367467,1.3044418738516306,0.8133000475488733,5.030018211247019,166
167,0.8263362515770558,1.3340296860184395,0.9679678510471255,0.49371306331050674,0.9354138548605656,4.557460706813693,167
168,0.8716670416259484,0.6305537340108577,1.1963276574228012,0.9186501417080408,0.8133000475488733,4.430498622316522,168
169,0.8622032507673212,1.0585207482429286,0.8159628348153366,1.3044418738516306,0.8133000475488733,4.85442875522609,169
170,0.9054819396985982,0.680951732957988,1.014602253400359,1.3044418738516306,1.1591848381010954,5.064662638009672,170
171,0.8716670416259484,0.7390315309170211,0.9533796846021256,0.49371306331050674,0.9354138548605656,3.9932051753161675,171
172,1.706851280063953,1.185395247776377,1.3297682341358856,1.2239985401299938,1.2772224050135144,6.7232357071197235,172
173,0.7306498956473502,0.680951732957988,1.6587356880978406,0.49371306331050674,1.006275259671987,4.570325639685672,173
174,0.8474858648967548,1.3253157407797715,0.9505156024819665,0.49371306331050674,1.006275259671987,4.623305531140987,174
175,0.8474858648967548,0.6305537340108577,0.983018489191347,1.5813711134066848,0.8133000475488733,4.855729249054518,175
176,1.459483232684759,1.0585207482429286,0.9922805039872016,0.49371306331050674,0.9976018228569148,5.00159937108231,176
177,1.459483232684759,0.644858734940786,0.8992357508663648,0.8527291577815652,0.8891451424204175,4.745452018693893,177
178,0.8403157580196393,1.185395247776377,1.1963276574228012,0.49371306331050674,0.8891451424204175,4.604896868949742,178
179,0.9054819396985982,0.7390315309170211,1.0882235724812517,0.49371306331050674,0.8891451424204175,4.115595248827796,179
180,0.8622032507673212,1.0585207482429286,0.7837277394877064,0.49371306331050674,1.242499879669392,4.440664681477855,180
181,0.8474858648967548,0.9723825417014988,1.50739414083809,1.714617047551628,0.9354138548605656,5.9772934498485375,181
182,1.706851280063953,1.224123109650942,1.1607487459068544,1.5813711134066848,1.1591848381010954,6.83227908712953,182
183,1.7860975252947346,0.6305537340108577,0.7575418363196272,0.9186501417080408,0.9976018228569148,5.090445060190175,183
184,0.9096363332414507,1.3963241766340975,0.9922805039872016,0.49371306331050674,0.8891451424204175,4.6810992195936745,184
185,1.459483232684759,1.3145966911859206,1.50739414083809,1.2474983049951964,0.8891451424204175,6.418117512124384,185
186,0.9096363332414507,0.7390315309170211,1.2293940726192063,0.49371306331050674,1.006275259671987,4.3780502597601725,186
187,0.7306498956473502,1.9184128429683642,0.7995199917810841,2.487093984006915,0.8133000475488733,6.748976761952586,187
188,0.8403157580196393,1.3340296860184395,0.9069565302484662,0.8527291577815652,0.8133000475488733,4.7473311796169835,188
189,0.91172812023612,0.6305537340108577,0.7741705870255384,0.9186501417080408,0.8891451424204175,4.124247725400974,189
190,1.1029434388868302,1.3253157407797715,0.9679678510471255,0.8527291577815652,0.8891451424204175,5.13810133091571,190
191,1.459483232684759,0.644858734940786,1.4092597305900636,0.8527291577815652,0.8133000475488733,5.179630903546047,191
192,0.8403157580196393,1.224123109650942,0.9069565302484662,0.9186501417080408,0.8133000475488733,4.703345587175962,192
193,0.8474858648967548,0.644858734940786,0.9533796846021256,0.9186501417080408,1.1591848381010954,4.523559264248803,193
194,0.8529450192313964,1.0707486024508723,1.1273105919010336,1.3044418738516306,0.8891451424204175,5.2445912298553505,194
195,1.0786552526137378,1.185395247776377,0.8792822880152499,0.8527291577815652,1.006275259671987,5.002337205858916,195
196,0.8263362515770558,0.6305537340108577,0.7995199917810841,1.5813711134066848,0.9354138548605656,4.773194945636248,196
197,0.7306498956473502,1.185395247776377,0.8397123049364641,0.9186501417080408,0.9976018228569148,4.672009412925147,197
198,0.8263362515770558,0.7390315309170211,0.9860861396632304,1.2474983049951964,1.1591848381010954,4.958137065253599,198
199,1.038734217647062,1.185395247776377,0.8992357508663648,0.8527291577815652,1.006275259671987,4.982369633743356,199
200,1.1060604795039815,0.7390315309170211,1.3297682341358856,0.8527291577815652,1.1591848381010954,5.186774240439549,200
201,0.9054819396985982,1.3253157407797715,0.9228081684095735,0.49371306331050674,1.1591848381010954,4.8065037502995445,201
202,1.0786552526137378,0.7390315309170211,0.9860861396632304,0.8527291577815652,1.006275259671987,4.662777340647542,202
203,1.4652325026195927,0.6305537340108577,0.8792822880152499,0.49371306331050674,0.8133000475488733,4.28208163550508,203
204,0.8529450192313964,0.644858734940786,1.0278258896034682,1.3044418738516306,1.2772224050135144,5.107293922640796,204
205,0.8678564027278923,1.187099095268231,0.9228081684095735,0.49371306331050674,0.8133000475488733,4.284776777265076,205
206,1.038734217647062,0.7390315309170211,0.9533796846021256,0.8527291577815652,0.8891451424204175,4.473019733368192,206
207,0.8474858648967548,1.224123109650942,1.0278258896034682,1.2239985401299938,0.9976018228569148,5.321035227138073,207
208,1.453785246075457,0.6305537340108577,0.95916088366761,0.8527291577815652,0.8891451424204175,4.7853741639559075,208
209,1.038734217647062,1.0585207482429286,1.50739414083809,0.9186501417080408,1.1591848381010954,5.682484086537217,209
210,1.096764396645492,0.8786595995448542,0.8792822880152499,0.49371306331050674,0.8133000475488733,4.161719395064976,210
211,0.7415558911378783,0.7390315309170211,0.9985549485209781,1.328136074822748,1.006275259671987,4.813553705070612,211
212,0.8622032507673212,1.187099095268231,0.8180659989575508,0.8527291577815652,0.8891451424204175,4.609242645195086,212
213,1.459483232684759,0.7390315309170211,0.8159628348153366,1.2239985401299938,0.8891451424204175,5.127621280967529,213
214,0.8529450192313964,1.0336291632459487,1.014602253400359,0.49371306331050674,1.1591848381010954,4.554074337289306,214
215,1.004316248911696,1.3473389003100178,0.95916088366761,1.2239985401299938,1.1591848381010954,5.693999411120412,215
216,1.706851280063953,0.7390315309170211,0.7995199917810841,0.49371306331050674,0.9354138548605656,4.674529720933131,216
217,0.9138297299193745,2.407018538507616,0.7915450433096987,0.49371306331050674,1.242499879669392,5.848606254716588,217
218,1.1029434388868302,0.680951732957988,0.7575418363196272,0.9186501417080408,0.8133000475488733,4.27338719742136,218
219,0.8678564027278923,0.680951732957988,0.7575418363196272,0.49371306331050674,0.8133000475488733,3.6133630828648875,219
220,1.4652325026195927,0.7390315309170211,0.9922805039872016,0.49371306331050674,1.1591848381010954,4.849442438935418,220
221,0.8993222411175086,1.3145966911859206,0.942027421367467,1.328136074822748,0.9354138548605656,5.41949628335421,221
222,1.038734217647062,1.3473389003100178,1.0882235724812517,0.49371306331050674,1.2772224050135144,5.245232158762352,222
223,0.7306498956473502,0.7390315309170211,1.0278258896034682,1.714617047551628,1.242499879669392,5.45462424338886,223
224,0.7306498956473502,0.7390315309170211,1.0882235724812517,0.49371306331050674,0.9976018228569148,4.049219885213044,224
225,0.8952628959050906,0.680951732957988,0.7197425117548176,0.49371306331050674,0.9354138548605656,3.7250840587889686,225
226,1.459483232684759,1.3340296860184395,1.1963276574228012,1.2474983049951964,1.2772224050135144,6.514561286134711,226
227,0.9054819396985982,1.3340296860184395,1.4092597305900636,0.49371306331050674,1.006275259671987,5.148759679289595,227
228,0.8952628959050906,0.644858734940786,1.2593125970044623,0.8527291577815652,0.8133000475488733,4.465463433180777,228
229,0.8584756847933248,0.644858734940786,0.8159628348153366,0.49371306331050674,1.1591848381010954,3.9721951559610496,229
230,0.8678564027278923,1.0707486024508723,1.014602253400359,1.714617047551628,0.9976018228569148,5.665426128987666,230
231,0.8993222411175086,0.644858734940786,0.7575418363196272,0.8527291577815652,0.8133000475488733,3.96775201770836,231
232,0.8993222411175086,1.3145966911859206,0.9228081684095735,0.49371306331050674,0.9354138548605656,4.5658540188840755,232
233,1.038734217647062,0.644858734940786,0.8966916327974446,1.3044418738516306,0.9354138548605656,4.82014031409749,233
234,1.459483232684759,0.8786595995448542,0.995407615147645,0.49371306331050674,0.8133000475488733,4.6405635582366385,234
235,0.9159412351297077,1.0336291632459487,1.3355392346491888,1.2239985401299938,0.9976018228569148,5.506709996011754,235
236,0.9159412351297077,0.6305537340108577,1.0882235724812517,1.2474983049951964,1.006275259671987,4.888492106289,236
237,0.8678564027278923,2.043794772464461,1.3297682341358856,1.328136074822748,0.8133000475488733,6.382855531699859,237
238,0.8993222411175086,1.0336291632459487,0.8159628348153366,0.8527291577815652,0.9354138548605656,4.537057251820925,238
239,1.0068797947240453,0.6305537340108577,1.0278258896034682,1.714617047551628,0.9354138548605656,5.315290320750566,239
240,1.459483232684759,0.6305537340108577,0.9069565302484662,0.9186501417080408,0.8891451424204175,4.804788781072541,240
241,0.8474858648967548,0.680951732957988,0.9228081684095735,0.49371306331050674,0.9354138548605656,3.8803726844353883,241
242,0.9138297299193745,1.224123109650942,0.8966916327974446,1.328136074822748,1.2772224050135144,5.640002952204023,242
243,0.7415558911378783,0.7390315309170211,1.3297682341358856,0.8527291577815652,1.1591848381010954,4.822269652073445,243
244,1.096764396645492,2.0192837802501344,1.1273105919010336,0.49371306331050674,0.8133000475488733,5.55037187965604,244
245,1.038734217647062,0.644858734940786,1.2593125970044623,0.49371306331050674,1.242499879669392,4.67911849257221,245
246,0.8993222411175086,1.3253157407797715,1.3297682341358856,1.2474983049951964,0.8133000475488733,5.615204568577235,246
247,1.1060604795039815,0.7390315309170211,1.0882235724812517,0.8527291577815652,0.8891451424204175,4.675189883104236,247
248,0.8529450192313964,1.3145966911859206,0.8397123049364641,0.49371306331050674,0.9354138548605656,4.436380933524854,248
249,1.038734217647062,0.644858734940786,0.9679678510471255,0.49371306331050674,0.8133000475488733,3.9585739144943535,249
250,0.7333463771421802,0.680951732957988,0.9228081684095735,0.8527291577815652,0.8891451424204175,4.078980578711724,250
251,0.8622032507673212,0.8786595995448542,0.9228081684095735,0.9186501417080408,1.242499879669392,4.824821040099181,251
252,1.038734217647062,0.680951732957988,0.7197425117548176,0.8527291577815652,0.9976018228569148,4.289759442998347,252
253,0.8403157580196393,0.8786595995448542,0.7837277394877064,0.49371306331050674,0.8891451424204175,3.885561302783124,253
254,0.9794024887283261,1.0707486024508723,1.0882235724812517,0.49371306331050674,1.1591848381010954,4.7912725650720525,254
255,0.7415558911378783,0.7390315309170211,1.014602253400359,0.49371306331050674,1.1591848381010954,4.14808757686686,255
256,0.8584756847933248,1.224123109650942,0.8992357508663648,0.49371306331050674,0.9976018228569148,4.473149431478053,256
257,0.8952628959050906,0.7390315309170211,0.9228081684095735,0.8527291577815652,0.8133000475488733,4.223131800562124,257
258,0.9794024887283261,1.0585207482429286,0.9679678510471255,1.3044418738516306,0.8133000475488733,5.123633009418884,258
259,1.459483232684759,0.644858734940786,0.8374960112727121,1.714617047551628,1.1591848381010954,5.815639864550981,259
260,0.9054819396985982,0.680951732957988,0.8159628348153366,0.49371306331050674,1.006275259671987,3.902384830454417,260
261,0.7306498956473502,1.0707486024508723,0.995407615147645,0.8527291577815652,1.006275259671987,4.655810530699419,261
262,0.8622032507673212,0.6305537340108577,0.7741705870255384,1.3044418738516306,0.8891451424204175,4.460514588075766,262
263,0.8403157580196393,0.6305537340108577,1.3297682341358856,1.3044418738516306,0.8133000475488733,4.918379647566886,263
264,1.4652325026195927,0.8786595995448542,1.3297682341358856,0.9186501417080408,1.006275259671987,5.598585737680361,264
265,1.1029434388868302,1.3145966911859206,0.9069565302484662,1.714617047551628,1.242499879669392,6.281613587542237,265
266,0.9054819396985982,1.3473389003100178,0.8374960112727121,0.8527291577815652,0.9354138548605656,4.878459863923459,266
267,0.7415558911378783,0.6305537340108577,0.7197425117548176,1.2474983049951964,1.1591848381010954,4.498535279999846,267
268,0.8529450192313964,1.3473389003100178,1.1273105919010336,0.8527291577815652,0.9354138548605656,5.115737524084579,268
269,0.8716670416259484,0.680951732957988,0.7741705870255384,0.8527291577815652,0.9976018228569148,4.177120342247955,269
270,0.9159412351297077,0.644858734940786,0.9228081684095735,0.8527291577815652,1.006275259671987,4.34261255593362,270
271,0.8584756847933248,1.3253157407797715,0.9985549485209781,1.2239985401299938,0.8133000475488733,5.219644961772941,271
272,0.8993222411175086,1.3145966911859206,0.8374960112727121,1.328136074822748,0.9354138548605656,5.314964873259455,272
273,0.8952628959050906,0.7390315309170211,1.0017227098518153,0.49371306331050674,1.1591848381010954,4.288915038085529,273
274,0.8263362515770558,1.3473389003100178,0.9985549485209781,0.49371306331050674,0.8133000475488733,4.479243211267432,274
275,0.7306498956473502,0.9723825417014988,0.8159628348153366,0.9186501417080408,0.9976018228569148,4.435247236729142,275
276,0.8584756847933248,1.224123109650942,0.7915450433096987,1.2239985401299938,0.9976018228569148,5.0957442007408735,276
277,0.9159412351297077,0.8786595995448542,1.014602253400359,1.2474983049951964,0.9354138548605656,4.992115247930683,277
278,0.8474858648967548,1.187099095268231,1.0882235724812517,1.328136074822748,0.8133000475488733,5.264244655017858,278
279,0.8622032507673212,0.6305537340108577,0.8792822880152499,0.49371306331050674,0.9354138548605656,3.801166190964501,279
280,1.459483232684759,1.3473389003100178,0.9985549485209781,1.3044418738516306,1.242499879669392,6.352318835036778,280
281,0.9138297299193745,0.6305537340108577,1.0882235724812517,1.2239985401299938,0.8133000475488733,4.669905624090351,281
282,1.0669260299149776,0.644858734940786,0.8159628348153366,0.49371306331050674,0.9354138548605656,3.9568745178421727,282
283,0.9054819396985982,0.680951732957988,0.7741705870255384,0.49371306331050674,0.8133000475488733,3.667617370541505,283
284,0.8263362515770558,0.9723825417014988,0.7741705870255384,0.9186501417080408,1.2772224050135144,4.768761927025649,284
285,0.9159412351297077,1.0336291632459487,0.983018489191347,1.2474983049951964,1.1591848381010954,5.339272030663295,285
286,0.91172812023612,1.5219777046726715,0.9228081684095735,1.328136074822748,1.006275259671987,5.690925327813099,286
287,1.0786552526137378,1.3340296860184395,1.5382876096198153,0.8527291577815652,0.9976018228569148,5.801303528890472,287
288,0.7306498956473502,1.0585207482429286,0.983018489191347,0.9186501417080408,0.8891451424204175,4.579984417210084,288
289,1.453785246075457,1.0585207482429286,1.0882235724812517,1.328136074822748,0.8133000475488733,5.741965689171258,289
290,0.7333463771421802,0.7390315309170211,0.8180659989575508,1.2474983049951964,0.9976018228569148,4.535544034868863,290
291,0.8622032507673212,2.0192837802501344,0.9069565302484662,0.8527291577815652,1.006275259671987,5.647447978719475,291
292,1.4652325026195927,1.3340296860184395,0.9069565302484662,0.8527291577815652,0.9354138548605656,5.494361731528629,292
293,0.8529450192313964,0.7390315309170211,1.1963276574228012,0.49371306331050674,0.8133000475488733,4.095317318430599,293
294,0.7306498956473502,0.644858734940786,0.7575418363196272,0.49371306331050674,1.242499879669392,3.869263409887662,294
295,0.9054819396985982,0.644858734940786,1.3963657634714146,0.49371306331050674,0.9354138548605656,4.375833356281872,295
296,0.91172812023612,0.6305537340108577,1.0278258896034682,0.8527291577815652,0.8891451424204175,4.311982044052429,296
297,1.453785246075457,1.5219777046726715,0.8159628348153366,1.328136074822748,0.9976018228569148,6.117463683243128,297
298,0.9096363332414507,0.680951732957988,1.3963657634714146,3.067375709817439,0.9976018228569148,7.051931362345207,298
299,1.1060604795039815,0.680951732957988,0.7915450433096987,1.2474983049951964,1.006275259671987,4.832330820438852,299
300,0.8993222411175086,0.644858734940786,0.8966916327974446,0.49371306331050674,1.1591848381010954,4.0937705102673405,300
301,0.8678564027278923,2.0192837802501344,0.7995199917810841,1.328136074822748,1.2772224050135144,6.292018654595373,301
302,1.004316248911696,1.3340296860184395,1.9017796935194327,1.5813711134066848,1.006275259671987,6.82777200152824,302
303,2.150451628980766,1.3963241766340975,0.9069565302484662,1.2239985401299938,0.9354138548605656,6.6131447308538895,303
304,0.8529450192313964,0.8786595995448542,0.9505156024819665,1.2474983049951964,0.8133000475488733,4.742918573802287,304
305,0.7415558911378783,1.0707486024508723,0.7197425117548176,0.49371306331050674,0.9976018228569148,4.02336189151099,305
306,0.9159412351297077,1.5902529024739913,0.7995199917810841,0.49371306331050674,0.8133000475488733,4.612727240244163,306
307,0.8993222411175086,0.6305537340108577,0.8966916327974446,0.49371306331050674,1.006275259671987,3.9265559309083042,307
308,0.8716670416259484,1.0707486024508723,0.9985549485209781,1.2474983049951964,1.006275259671987,5.194744157264983,308
309,1.0068797947240453,0.680951732957988,0.7741705870255384,1.328136074822748,1.006275259671987,4.796413449202307,309
310,0.9096363332414507,1.0336291632459487,0.7197425117548176,1.2239985401299938,1.006275259671987,4.893281808044199,310
311,0.9794024887283261,0.9723825417014988,0.7837277394877064,0.8527291577815652,0.8133000475488733,4.40154197524797,311
312,0.8716670416259484,0.7390315309170211,0.7575418363196272,0.8527291577815652,0.8133000475488733,4.034269614193035,312
313,1.038734217647062,1.185395247776377,0.8966916327974446,0.49371306331050674,0.9976018228569148,4.6121359843883045,313
314,1.3167986539728664,0.6305537340108577,0.7197425117548176,0.8527291577815652,1.006275259671987,4.526099317192094,314
315,0.9138297299193745,1.3963241766340975,1.4092597305900636,1.2474983049951964,1.006275259671987,5.973187201810719,315
316,0.8622032507673212,1.3145966911859206,0.7915450433096987,1.328136074822748,0.8891451424204175,5.185626202506106,316
317,0.9159412351297077,1.187099095268231,1.3297682341358856,0.49371306331050674,0.9354138548605656,4.861935482704897,317
318,0.9159412351297077,0.9723825417014988,0.7915450433096987,0.49371306331050674,0.8133000475488733,3.986881931000285,318
319,1.4652325026195927,0.8786595995448542,0.8992357508663648,1.2474983049951964,1.1591848381010954,5.649810996127103,319
320,0.8952628959050906,1.5902529024739913,1.0278258896034682,0.8527291577815652,1.006275259671987,5.372346105436103,320
321,0.7415558911378783,0.8786595995448542,0.7995199917810841,1.2474983049951964,1.1591848381010954,4.826418625560109,321
322,0.8993222411175086,1.5902529024739913,0.9860861396632304,1.2239985401299938,1.006275259671987,5.705935083056712,322
323,0.8529450192313964,1.9184128429683642,1.442660767893365,0.49371306331050674,1.006275259671987,5.71400695307562,323
324,0.8716670416259484,0.644858734940786,1.014602253400359,1.3044418738516306,0.9976018228569148,4.833171726675639,324
325,0.8993222411175086,0.7390315309170211,1.3355392346491888,1.2474983049951964,1.242499879669392,5.463891191348306,325
326,0.8622032507673212,0.9723825417014988,0.8397123049364641,0.49371306331050674,0.8891451424204175,4.057156303136209,326
327,0.9794024887283261,0.680951732957988,1.3297682341358856,0.49371306331050674,1.1591848381010954,4.643020357233802,327
328,0.8529450192313964,0.6305537340108577,1.1607487459068544,0.9186501417080408,1.006275259671987,4.569172900529137,328
329,1.038734217647062,0.9723825417014988,0.9069565302484662,0.8527291577815652,1.006275259671987,4.777077707050579,329
330,0.9054819396985982,1.3253157407797715,0.9228081684095735,2.487093984006915,1.006275259671987,6.646975092566844,330
331,1.1029434388868302,0.8786595995448542,0.7915450433096987,0.49371306331050674,0.8133000475488733,4.080161192600763,331
332,1.6065922260181567,0.644858734940786,1.1273105919010336,0.49371306331050674,1.006275259671987,4.87874987584247,332
333,0.8622032507673212,0.680951732957988,0.8792822880152499,0.49371306331050674,0.9976018228569148,3.9137521579079806,333
334,0.8263362515770558,0.6305537340108577,1.1607487459068544,1.2474983049951964,1.006275259671987,4.871412296161951,334
335,0.8529450192313964,0.6305537340108577,0.95916088366761,1.328136074822748,1.006275259671987,4.7770709714046,335
336,1.7768239455424892,1.3963241766340975,0.995407615147645,0.9186501417080408,0.8133000475488733,5.900505926581145,336
337,0.8622032507673212,1.3473389003100178,0.95916088366761,1.5813711134066848,1.006275259671987,5.75634940782362,337
338,0.8622032507673212,1.3340296860184395,0.8374960112727121,1.5813711134066848,0.8891451424204175,5.504245203885575,338
339,0.7306498956473502,1.5219777046726715,0.9860861396632304,1.2474983049951964,0.8133000475488733,5.299512092527322,339
340,0.8993222411175086,1.3963241766340975,0.9228081684095735,0.8527291577815652,1.006275259671987,5.077459003614733,340
341,1.459483232684759,1.3340296860184395,0.7197425117548176,0.49371306331050674,0.8133000475488733,4.820268541317397,341
342,0.8716670416259484,0.7390315309170211,0.7741705870255384,0.49371306331050674,0.9976018228569148,3.876184045735929,342
343,0.8678564027278923,1.9184128429683642,1.5789660261803067,0.9186501417080408,0.8133000475488733,6.097185461133478,343
344,0.8529450192313964,0.8786595995448542,0.8159628348153366,0.49371306331050674,0.8891451424204175,3.9304256593225118,344
345,1.459483232684759,0.680951732957988,1.4706595036895087,1.328136074822748,1.006275259671987,5.9455058038269915,345
346,0.8529450192313964,0.8786595995448542,1.1273105919010336,0.8527291577815652,1.1591848381010954,4.870829206559945,346
347,1.004316248911696,0.8786595995448542,0.995407615147645,2.487093984006915,0.8133000475488733,6.1787774951599825,347
348,1.3167986539728664,0.9723825417014988,0.8992357508663648,0.49371306331050674,0.9354138548605656,4.617543864711802,348
349,0.8474858648967548,1.3253157407797715,1.3297682341358856,0.49371306331050674,0.8891451424204175,4.885428045543336,349
350,0.8474858648967548,1.3340296860184395,1.3297682341358856,0.49371306331050674,1.1591848381010954,5.1641816864626815,350
351,0.8622032507673212,0.644858734940786,1.0017227098518153,0.9186501417080408,1.2772224050135144,4.704657242281478,351
352,0.7333463771421802,0.7390315309170211,0.8374960112727121,0.49371306331050674,1.1591848381010954,3.9627718207435154,352
353,0.8678564027278923,2.043794772464461,1.3297682341358856,0.8527291577815652,0.9976018228569148,6.091750389966718,353
354,1.0786552526137378,1.3145966911859206,0.7741705870255384,0.8527291577815652,1.1591848381010954,5.179336526707857,354
355,0.8716670416259484,0.8786595995448542,0.8180659989575508,1.2239985401299938,0.8133000475488733,4.60569122780722,355
356,0.7333463771421802,1.0707486024508723,1.4706595036895087,0.49371306331050674,1.1591848381010954,4.927652384694163,356
357,0.7415558911378783,0.7390315309170211,0.9922805039872016,2.487093984006915,0.8133000475488733,5.773261957597889,357
358,0.9096363332414507,0.9723825417014988,1.3355392346491888,1.2239985401299938,0.9976018228569148,5.439158472579047,358
359,0.9054819396985982,0.7390315309170211,0.9228081684095735,0.49371306331050674,0.8891451424204175,3.950179844756117,359
360,0.9054819396985982,0.680951732957988,1.014602253400359,1.2239985401299938,1.242499879669392,5.067534345856331,360
361,0.8993222411175086,0.6305537340108577,1.0414082901549084,0.49371306331050674,0.8891451424204175,3.9541424710141992,361
362,0.7306498956473502,0.7390315309170211,0.9228081684095735,1.3044418738516306,0.9354138548605656,4.632345323686142,362
363,0.8263362515770558,1.0585207482429286,0.7741705870255384,0.8527291577815652,1.2772224050135144,4.7889791496406025,363
364,0.8403157580196393,1.224123109650942,0.9922805039872016,1.3044418738516306,0.8891451424204175,5.2503063879298315,364
365,1.0669260299149776,1.224123109650942,0.9533796846021256,1.3044418738516306,0.9354138548605656,5.484284552880242,365
366,0.8529450192313964,1.185395247776377,1.1963276574228012,1.328136074822748,0.8133000475488733,5.376104046802196,366
367,0.9054819396985982,0.644858734940786,0.7197425117548176,1.5813711134066848,1.242499879669392,5.093954179470279,367
368,1.6665108674974691,1.3963241766340975,0.8159628348153366,1.714617047551628,0.9976018228569148,6.591016749355446,368
369,0.9138297299193745,0.644858734940786,1.3297682341358856,1.328136074822748,1.1591848381010954,5.37577761191989,369
370,1.0669260299149776,1.0336291632459487,0.8397123049364641,0.49371306331050674,1.2772224050135144,4.7112029664214115,370
371,0.8716670416259484,0.6305537340108577,0.9860861396632304,1.714617047551628,1.242499879669392,5.445423842521057,371
372,0.8993222411175086,0.8786595995448542,1.1963276574228012,1.5813711134066848,1.242499879669392,5.798180491161241,372
373,0.9138297299193745,1.187099095268231,0.9985549485209781,0.49371306331050674,0.9354138548605656,4.528610691879656,373
374,1.1060604795039815,1.0585207482429286,1.0414082901549084,0.49371306331050674,0.8891451424204175,4.588847723632743,374
375,0.9054819396985982,1.0336291632459487,0.9069565302484662,1.328136074822748,0.9976018228569148,5.171805530872676,375
376,1.459483232684759,0.6305537340108577,0.8966916327974446,1.2474983049951964,0.9354138548605656,5.169640759348824,376
377,0.7415558911378783,0.9723825417014988,1.442660767893365,1.714617047551628,0.8891451424204175,5.760361390704788,377
378,0.9054819396985982,0.680951732957988,1.1963276574228012,1.3044418738516306,0.8891451424204175,4.976348346351436,378
379,0.9054819396985982,1.3963241766340975,1.1607487459068544,0.49371306331050674,1.006275259671987,4.962543185222044,379
380,1.459483232684759,0.8786595995448542,0.8792822880152499,0.49371306331050674,1.242499879669392,4.953638063224762,380
381,1.0068797947240453,0.6305537340108577,0.9985549485209781,1.2239985401299938,0.8133000475488733,4.673287064934748,381
382,0.7306498956473502,0.644858734940786,1.0882235724812517,0.49371306331050674,0.8133000475488733,3.770745313928768,382
383,0.8716670416259484,0.8786595995448542,1.1607487459068544,0.49371306331050674,0.8891451424204175,4.293933592808581,383
384,0.7306498956473502,1.224123109650942,1.3297682341358856,1.2474983049951964,0.8891451424204175,5.4211846868497915,384
385,0.8952628959050906,0.8786595995448542,0.8374960112727121,0.49371306331050674,0.8133000475488733,3.918431617582037,385
386,1.1029434388868302,1.224123109650942,1.3297682341358856,0.9186501417080408,0.9976018228569148,5.573086747238612,386
387,1.1060604795039815,0.644858734940786,0.9922805039872016,0.49371306331050674,0.8891451424204175,4.126057924162893,387
388,1.1060604795039815,0.9723825417014988,0.8159628348153366,0.49371306331050674,1.1591848381010954,4.547303757432418,388
389,1.0669260299149776,0.644858734940786,0.7197425117548176,0.8527291577815652,0.9354138548605656,4.219670289252712,389
390,0.7333463771421802,0.6305537340108577,0.9985549485209781,0.9186501417080408,1.1591848381010954,4.440290039483152,390
391,1.004316248911696,1.187099095268231,0.7575418363196272,0.49371306331050674,0.9354138548605656,4.378084098670627,391
392,0.8993222411175086,0.644858734940786,1.0017227098518153,0.49371306331050674,0.8133000475488733,3.85291679676949,392
393,0.8993222411175086,0.6305537340108577,0.9228081684095735,1.2474983049951964,1.2772224050135144,4.97740485354665,393
394,1.004316248911696,1.5902529024739913,1.3297682341358856,1.3044418738516306,0.9976018228569148,6.226381082230118,394
395,0.91172812023612,1.185395247776377,0.9505156024819665,1.3044418738516306,0.8133000475488733,5.1653808918949675,395
396,1.004316248911696,1.3253157407797715,0.942027421367467,0.8527291577815652,0.8891451424204175,5.0135337112609175,396
397,0.7333463771421802,0.644858734940786,0.9228081684095735,1.2474983049951964,0.9354138548605656,4.483925440348302,397
398,0.9096363332414507,0.680951732957988,0.8374960112727121,1.2474983049951964,0.9354138548605656,4.610996237327913,398
399,0.8474858648967548,1.0707486024508723,0.7741705870255384,0.49371306331050674,0.8891451424204175,4.07526326010409,399
400,0.8716670416259484,1.0585207482429286,0.8966916327974446,0.8527291577815652,0.8891451424204175,4.568753722868304,400
401,0.7415558911378783,1.0336291632459487,0.7837277394877064,1.5813711134066848,0.8133000475488733,4.953583954827091,401
402,0.8678564027278923,1.5219777046726715,0.9922805039872016,0.8527291577815652,1.2772224050135144,5.512066174182845,402
403,0.8622032507673212,1.3253157407797715,1.3355392346491888,1.328136074822748,1.1591848381010954,6.010379139120126,403
404,0.8622032507673212,0.6305537340108577,0.9860861396632304,0.49371306331050674,1.006275259671987,3.9788314474239033,404
405,0.7306498956473502,1.0336291632459487,1.0414082901549084,0.8527291577815652,0.8133000475488733,4.471716554378646,405
406,0.8993222411175086,1.0707486024508723,0.9505156024819665,1.3044418738516306,0.9976018228569148,5.222630142758892,406
407,0.91172812023612,1.0585207482429286,0.8159628348153366,0.8527291577815652,1.2772224050135144,4.916163266089464,407
408,0.91172812023612,1.224123109650942,1.1963276574228012,0.49371306331050674,0.9354138548605656,4.761305805480935,408
409,1.459483232684759,0.6305537340108577,0.9228081684095735,0.49371306331050674,0.8891451424204175,4.395703340836115,409
410,0.8584756847933248,1.3963241766340975,1.0017227098518153,0.8527291577815652,1.006275259671987,5.115526988732791,410
411,0.8474858648967548,1.3963241766340975,0.9860861396632304,1.2474983049951964,1.242499879669392,5.719894365858671,411
412,1.038734217647062,0.7390315309170211,0.7575418363196272,0.9186501417080408,0.9354138548605656,4.389371581452317,412
413,1.038734217647062,1.3473389003100178,0.8397123049364641,1.2474983049951964,0.8133000475488733,5.286583775437613,413
414,1.453785246075457,0.7390315309170211,0.9860861396632304,1.2474983049951964,0.8133000475488733,5.239701269199778,414
415,0.8403157580196393,0.6305537340108577,0.9069565302484662,0.49371306331050674,0.9976018228569148,3.8691409084463846,415
416,1.1029434388868302,0.680951732957988,0.7575418363196272,1.328136074822748,0.8133000475488733,4.682873130536066,416
417,1.0786552526137378,0.7390315309170211,0.9860861396632304,1.5813711134066848,1.2772224050135144,5.662366441614189,417
418,1.459483232684759,0.9723825417014988,1.0278258896034682,0.8527291577815652,1.006275259671987,5.318696081443278,418
419,1.459483232684759,0.680951732957988,1.2293940726192063,1.714617047551628,0.9976018228569148,6.082047908670496,419
420,0.7306498956473502,0.644858734940786,0.9533796846021256,0.8527291577815652,0.8891451424204175,4.070762615392245,420
421,0.8622032507673212,1.3253157407797715,0.9985549485209781,1.2239985401299938,0.9354138548605656,5.345486335058631,421
422,0.8678564027278923,1.3473389003100178,0.9922805039872016,1.2474983049951964,0.8133000475488733,5.268274159569181,422
423,0.91172812023612,0.8786595995448542,0.7915450433096987,2.487093984006915,1.242499879669392,6.31152662676698,423
424,0.8952628959050906,0.680951732957988,0.7837277394877064,1.2239985401299938,1.2772224050135144,4.861163313494293,424
425,0.7415558911378783,1.3473389003100178,0.9228081684095735,1.5813711134066848,0.8133000475488733,5.406374120813028,425
426,0.9096363332414507,1.0707486024508723,0.9679678510471255,1.2239985401299938,0.9354138548605656,5.1077651817300085,426
427,0.9096363332414507,2.043794772464461,0.942027421367467,0.49371306331050674,0.9976018228569148,5.3867734132408005,427
428,1.0786552526137378,1.3340296860184395,1.3355392346491888,0.9186501417080408,1.242499879669392,5.909374194658799,428
429,1.038734217647062,0.644858734940786,0.9985549485209781,0.8527291577815652,1.006275259671987,4.5411523185623786,429
430,0.9138297299193745,0.7390315309170211,1.3297682341358856,1.328136074822748,0.9976018228569148,5.3083673926519435,430
431,0.8263362515770558,1.185395247776377,0.983018489191347,0.8527291577815652,0.8891451424204175,4.7366242887467624,431
432,0.9054819396985982,1.5219777046726715,1.1273105919010336,0.49371306331050674,0.8133000475488733,4.861783347131683,432
433,0.9096363332414507,0.7390315309170211,0.95916088366761,0.49371306331050674,1.1591848381010954,4.260726649237684,433
434,0.91172812023612,1.224123109650942,0.9922805039872016,0.9186501417080408,1.2772224050135144,5.324004280595819,434
435,0.8263362515770558,0.680951732957988,0.9922805039872016,1.2239985401299938,0.9976018228569148,4.721168851509154,435
436,1.7768239455424892,1.3340296860184395,1.2593125970044623,0.9186501417080408,0.8133000475488733,6.102116417822305,436
437,1.004316248911696,0.8786595995448542,0.9922805039872016,0.49371306331050674,1.006275259671987,4.375244675426245,437
438,1.038734217647062,0.680951732957988,0.7837277394877064,0.49371306331050674,0.8891451424204175,3.886271895823681,438
439,0.8716670416259484,0.6305537340108577,0.8397123049364641,0.8527291577815652,1.006275259671987,4.200937498026823,439
440,0.7415558911378783,1.185395247776377,0.9228081684095735,0.49371306331050674,0.9354138548605656,4.278886225494901,440
441,1.453785246075457,0.644858734940786,0.995407615147645,1.2239985401299938,1.1591848381010954,5.477234974394976,441
442,0.7306498956473502,0.680951732957988,0.7197425117548176,0.49371306331050674,0.9354138548605656,3.560471058531228,442
443,0.91172812023612,1.9184128429683642,0.9228081684095735,1.2474983049951964,1.1591848381010954,6.159632274710349,443
444,0.8993222411175086,0.7390315309170211,0.8397123049364641,0.9186501417080408,1.006275259671987,4.402991478351021,444
445,1.1060604795039815,1.3340296860184395,1.014602253400359,0.49371306331050674,0.9354138548605656,4.883819337093852,445
446,0.7333463771421802,0.680951732957988,0.8992357508663648,0.8527291577815652,1.242499879669392,4.40876289841749,446
447,0.9138297299193745,1.3145966911859206,0.942027421367467,1.2474983049951964,1.2772224050135144,5.695174552481474,447
448,0.7306498956473502,1.3473389003100178,0.9505156024819665,0.49371306331050674,1.006275259671987,4.528492721421829,448
449,1.459483232684759,0.8786595995448542,1.014602253400359,0.9186501417080408,1.2772224050135144,5.548617632351528,449
450,0.8678564027278923,0.680951732957988,1.3297682341358856,0.8527291577815652,1.006275259671987,4.737580787275318,450
451,0.8716670416259484,1.0336291632459487,0.8180659989575508,0.8527291577815652,1.242499879669392,4.818591241280405,451
452,0.8952628959050906,0.6305537340108577,0.8180659989575508,1.2474983049951964,1.2772224050135144,4.86860333888221,452
453,0.8403157580196393,1.9184128429683642,0.7741705870255384,1.2239985401299938,0.8133000475488733,5.570197775692409,453
454,1.453785246075457,0.9723825417014988,0.7575418363196272,0.49371306331050674,0.8133000475488733,4.4907227349559635,454
455,1.038734217647062,0.6305537340108577,0.7575418363196272,0.8527291577815652,0.9354138548605656,4.214972800619678,455
456,1.0068797947240453,0.680951732957988,0.8966916327974446,0.9186501417080408,1.242499879669392,4.74567318185691,456
457,0.8993222411175086,0.8786595995448542,0.9228081684095735,0.8527291577815652,1.2772224050135144,4.830741571867016,457
458,0.8403157580196393,1.224123109650942,0.8992357508663648,0.9186501417080408,0.9354138548605656,4.817738615105553,458
459,1.6665108674974691,0.7390315309170211,1.0017227098518153,1.2474983049951964,0.8133000475488733,5.4680634608103755,459
460,1.0068797947240453,0.680951732957988,1.3297682341358856,0.9186501417080408,0.9976018228569148,4.9338517263828745,460
461,1.038734217647062,0.680951732957988,1.3355392346491888,1.3044418738516306,0.8133000475488733,5.172967106654743,461
462,0.8529450192313964,1.224123109650942,1.0017227098518153,0.49371306331050674,0.8133000475488733,4.385803949593534,462
463,1.6065922260181567,0.6305537340108577,0.8992357508663648,1.3044418738516306,0.8891451424204175,5.329968727167428,463
464,0.8678564027278923,0.6305537340108577,0.9228081684095735,0.49371306331050674,1.2772224050135144,4.192153773472344,464
465,0.8622032507673212,1.5219777046726715,0.7837277394877064,0.49371306331050674,0.8133000475488733,4.474921805787079,465
466,0.9054819396985982,0.8786595995448542,1.6587356880978406,1.2474983049951964,0.8133000475488733,5.503675579885362,466
467,0.8622032507673212,1.3253157407797715,1.4706595036895087,0.8527291577815652,1.242499879669392,5.753407532687559,467
468,0.9138297299193745,1.5902529024739913,0.9860861396632304,0.8527291577815652,1.242499879669392,5.585397809507553,468
469,0.8403157580196393,1.224123109650942,0.9679678510471255,1.328136074822748,0.9976018228569148,5.358144616397369,469
470,1.6065922260181567,0.644858734940786,0.7995199917810841,1.2474983049951964,0.8891451424204175,5.187614400155641,470
471,1.459483232684759,1.187099095268231,0.9228081684095735,1.2474983049951964,1.2772224050135144,6.094111206371275,471
472,1.459483232684759,0.6305537340108577,1.1607487459068544,0.49371306331050674,0.8891451424204175,4.633643918333395,472
473,1.459483232684759,0.680951732957988,0.8159628348153366,0.8527291577815652,0.8133000475488733,4.622427005788523,473
474,1.038734217647062,0.8786595995448542,0.9069565302484662,0.8527291577815652,0.8891451424204175,4.566224647642365,474
475,0.9054819396985982,0.680951732957988,0.7741705870255384,0.9186501417080408,1.1591848381010954,4.438439239491261,475
476,0.8993222411175086,0.7390315309170211,1.3355392346491888,0.49371306331050674,0.9354138548605656,4.4030199248547905,476
477,0.8993222411175086,0.644858734940786,0.9985549485209781,0.49371306331050674,1.242499879669392,4.278948867559171,477
478,1.453785246075457,0.7390315309170211,0.8374960112727121,0.9186501417080408,1.006275259671987,4.955238189645218,478
479,0.7415558911378783,1.185395247776377,0.9505156024819665,1.2239985401299938,1.242499879669392,5.343965161195608,479
480,1.6065922260181567,2.0192837802501344,1.1963276574228012,1.2239985401299938,0.8891451424204175,6.935347346241504,480
481,0.7306498956473502,0.9723825417014988,0.9505156024819665,0.49371306331050674,0.9976018228569148,4.144862925998237,481
482,0.9159412351297077,0.644858734940786,1.0414082901549084,0.8527291577815652,0.8891451424204175,4.344082560427385,482
483,0.8529450192313964,0.6305537340108577,0.8159628348153366,0.9186501417080408,1.242499879669392,4.460611609435023,483
484,0.8263362515770558,0.6305537340108577,1.6587356880978406,2.8073345844820112,1.006275259671987,6.929235517839752,484
485,1.0068797947240453,2.043794772464461,0.7197425117548176,0.49371306331050674,1.1591848381010954,5.423314980354926,485
486,1.1060604795039815,0.8786595995448542,0.8180659989575508,0.49371306331050674,0.8891451424204175,4.185644283737311,486
487,0.9054819396985982,0.9723825417014988,0.7995199917810841,1.2474983049951964,1.242499879669392,5.16738265784577,487
488,1.453785246075457,0.644858734940786,0.9505156024819665,1.328136074822748,1.2772224050135144,5.654518063334471,488
489,0.7333463771421802,0.680951732957988,0.8792822880152499,0.9186501417080408,0.9354138548605656,4.147644394684025,489
490,1.453785246075457,0.6305537340108577,1.6587356880978406,0.9186501417080408,0.8133000475488733,5.475024857441069,490
491,0.8622032507673212,0.644858734940786,0.983018489191347,0.8527291577815652,0.8133000475488733,4.156109680229893,491
492,1.0669260299149776,0.7390315309170211,0.9985549485209781,1.2239985401299938,0.8891451424204175,4.917656191903388,492
493,0.8403157580196393,1.0336291632459487,0.9228081684095735,0.49371306331050674,0.9976018228569148,4.288067975842583,493
494,0.8529450192313964,1.0336291632459487,0.7741705870255384,2.487093984006915,0.8891451424204175,6.0369838959302164,494
495,0.9159412351297077,1.3473389003100178,0.9533796846021256,1.3044418738516306,0.9354138548605656,5.456515548754048,495
496,1.0068797947240453,0.644858734940786,1.1963276574228012,0.8527291577815652,0.8891451424204175,4.589940487289615,496
497,0.8263362515770558,1.3340296860184395,0.7915450433096987,1.3044418738516306,0.8133000475488733,5.069652902305697,497
498,0.7333463771421802,1.5219777046726715,0.8159628348153366,0.49371306331050674,0.8891451424204175,4.454145122361113,498
499,0.9159412351297077,0.8786595995448542,0.95916088366761,0.49371306331050674,0.9976018228569148,4.245076604509594,499
500,0.9159412351297077,0.7390315309170211,0.9860861396632304,1.328136074822748,0.9354138548605656,4.904608835393273,500
501,0.7306498956473502,2.0192837802501344,0.7741705870255384,0.8527291577815652,0.9976018228569148,5.3744352435615035,501
502,0.9138297299193745,0.680951732957988,1.3297682341358856,1.5813711134066848,0.8891451424204175,5.39506595284035,502
503,0.7306498956473502,0.644858734940786,0.7915450433096987,0.49371306331050674,0.9354138548605656,3.596180592068907,503
504,0.8993222411175086,0.680951732957988,0.9228081684095735,0.49371306331050674,0.9976018228569148,3.9943970286524912,504
505,0.8993222411175086,1.185395247776377,0.7995199917810841,0.8527291577815652,0.9354138548605656,4.6723804933171005,505
506,1.453785246075457,0.680951732957988,0.7837277394877064,0.49371306331050674,0.8133000475488733,4.225477829380532,506
507,1.4652325026195927,1.5219777046726715,1.0414082901549084,1.3044418738516306,0.8891451424204175,6.222205513719222,507
508,0.7333463771421802,0.8786595995448542,0.8159628348153366,0.49371306331050674,0.9976018228569148,3.9192836976697922,508
509,1.1029434388868302,1.0336291632459487,1.1607487459068544,1.3044418738516306,0.8891451424204175,5.490908364311681,509
510,1.706851280063953,0.6305537340108577,1.3963657634714146,0.49371306331050674,0.8133000475488733,5.040783888405605,510
511,1.453785246075457,1.187099095268231,0.9985549485209781,0.49371306331050674,0.8891451424204175,5.022297495595591,511
512,0.9159412351297077,1.3473389003100178,1.014602253400359,0.9186501417080408,1.242499879669392,5.439032410217518,512
513,0.7415558911378783,1.3340296860184395,0.942027421367467,2.487093984006915,0.8891451424204175,6.393852124951117,513
514,0.9096363332414507,0.8786595995448542,0.9985549485209781,0.49371306331050674,1.242499879669392,4.523063824287181,514
515,1.459483232684759,1.0585207482429286,0.8397123049364641,1.2474983049951964,1.006275259671987,5.611489850531335,515
516,0.91172812023612,0.9723825417014988,1.0017227098518153,0.49371306331050674,0.8133000475488733,4.1928464826488145,516
517,0.7306498956473502,1.0585207482429286,1.5382876096198153,1.5813711134066848,0.9976018228569148,5.906431189773693,517
518,0.8403157580196393,1.5902529024739913,0.995407615147645,0.49371306331050674,0.9976018228569148,4.917291161808697,518
519,0.8716670416259484,1.0585207482429286,0.7197425117548176,2.487093984006915,1.2772224050135144,6.414246690644124,519
520,0.9054819396985982,1.224123109650942,1.0017227098518153,1.5813711134066848,1.1591848381010954,5.871883710709136,520
521,0.7333463771421802,0.680951732957988,0.7741705870255384,1.714617047551628,0.8891451424204175,4.792230887097753,521
522,0.7306498956473502,0.680951732957988,0.7915450433096987,0.8527291577815652,0.9354138548605656,3.9912896845571675,522
523,0.8403157580196393,0.680951732957988,0.9860861396632304,1.328136074822748,1.006275259671987,4.841764965135592,523
524,1.096764396645492,0.644858734940786,0.8792822880152499,0.49371306331050674,0.9354138548605656,4.0500323377726,524
525,0.8993222411175086,0.680951732957988,0.8792822880152499,2.487093984006915,1.242499879669392,6.189150125767053,525
526,1.453785246075457,1.0336291632459487,0.9228081684095735,0.9186501417080408,1.1591848381010954,5.488057557540115,526
527,0.9794024887283261,0.8786595995448542,1.3297682341358856,1.5813711134066848,0.8133000475488733,5.582501483364624,527
528,1.1060604795039815,1.185395247776377,1.0278258896034682,1.328136074822748,0.9976018228569148,5.645019514563489,528
529,1.038734217647062,1.0336291632459487,0.8792822880152499,0.9186501417080408,0.8133000475488733,4.683595858165175,529
530,0.7333463771421802,1.0585207482429286,0.9228081684095735,0.9186501417080408,0.9976018228569148,4.630927258359638,530
531,0.9159412351297077,0.6305537340108577,0.8374960112727121,1.3044418738516306,0.9354138548605656,4.623846709125474,531
532,0.8952628959050906,0.6305537340108577,1.1963276574228012,0.49371306331050674,0.9354138548605656,4.151271205509822,532
533,1.038734217647062,1.3473389003100178,1.0882235724812517,1.328136074822748,0.8133000475488733,5.615732812809952,533
534,1.6065922260181567,1.185395247776377,0.942027421367467,0.49371306331050674,1.242499879669392,5.470227838141899,534
535,1.6665108674974691,1.187099095268231,1.0882235724812517,0.8527291577815652,1.242499879669392,6.037062572697909,535
536,0.7415558911378783,0.9723825417014988,0.995407615147645,1.2474983049951964,0.8133000475488733,4.770144400531092,536
537,1.0068797947240453,1.0336291632459487,1.014602253400359,1.2474983049951964,0.9354138548605656,5.238023371226116,537
538,0.9138297299193745,1.187099095268231,1.4495502049215274,1.2239985401299938,1.242499879669392,6.016977449908519,538
539,0.7333463771421802,1.3473389003100178,1.3963657634714146,0.49371306331050674,0.9976018228569148,4.968365927091034,539
540,0.9096363332414507,0.680951732957988,1.1273105919010336,1.2239985401299938,1.006275259671987,4.948172457902453,540
541,0.8952628959050906,1.3963241766340975,0.983018489191347,0.49371306331050674,1.1591848381010954,4.927503463142137,541
542,0.9159412351297077,2.407018538507616,0.8992357508663648,1.5813711134066848,0.9976018228569148,6.801168460767288,542
543,0.7306498956473502,0.644858734940786,0.9985549485209781,0.49371306331050674,0.9976018228569148,3.865378465276536,543
544,0.8474858648967548,1.3145966911859206,0.7575418363196272,1.714617047551628,0.8891451424204175,5.523386582374348,544
545,0.8474858648967548,1.0585207482429286,1.0414082901549084,0.49371306331050674,0.9354138548605656,4.376541821465665,545
546,1.459483232684759,1.224123109650942,0.8792822880152499,0.8527291577815652,1.1591848381010954,5.574802626233613,546
547,0.8263362515770558,1.185395247776377,1.3297682341358856,0.49371306331050674,0.8891451424204175,4.724357939220242,547
548,0.7333463771421802,1.224123109650942,1.2293940726192063,0.49371306331050674,1.242499879669392,4.923076502392227,548
549,1.459483232684759,0.644858734940786,1.3297682341358856,0.49371306331050674,0.9976018228569148,4.925425087928852,549
550,1.038734217647062,0.644858734940786,0.9505156024819665,1.3044418738516306,1.242499879669392,5.181050308590837,550
551,1.0786552526137378,0.9723825417014988,0.9922805039872016,1.2239985401299938,0.9354138548605656,5.202730693292998,551
552,0.8584756847933248,0.7390315309170211,1.0278258896034682,1.3044418738516306,0.9976018228569148,4.927376802022359,552
553,0.91172812023612,1.3963241766340975,1.0278258896034682,0.8527291577815652,1.006275259671987,5.194882603927239,553
554,1.1060604795039815,0.9723825417014988,0.8397123049364641,0.8527291577815652,1.006275259671987,4.777159743595496,554
555,1.096764396645492,1.3340296860184395,1.0882235724812517,0.49371306331050674,0.9354138548605656,4.948144573316256,555
556,0.8993222411175086,1.3253157407797715,0.9860861396632304,0.49371306331050674,0.9976018228569148,4.702039007727932,556
557,1.459483232684759,1.3963241766340975,0.9228081684095735,1.2239985401299938,1.1591848381010954,6.161798955959519,557
558,0.8474858648967548,1.3963241766340975,0.8159628348153366,1.3044418738516306,1.006275259671987,5.3704900098698065,558
559,1.038734217647062,1.0585207482429286,0.9860861396632304,1.3044418738516306,0.8891451424204175,5.27692812182527,559
560,0.8529450192313964,1.3963241766340975,1.0017227098518153,0.8527291577815652,0.8891451424204175,4.992866205919292,560
561,1.1029434388868302,1.187099095268231,1.0882235724812517,0.9186501417080408,0.8891451424204175,5.186061390764772,561
562,0.8678564027278923,1.3473389003100178,0.8992357508663648,1.328136074822748,1.2772224050135144,5.719789533740537,562
563,0.8952628959050906,0.644858734940786,0.8374960112727121,0.8527291577815652,0.8891451424204175,4.119491942320571,563
564,0.7415558911378783,1.3145966911859206,0.7575418363196272,0.49371306331050674,1.006275259671987,4.31368274162592,564
565,1.0786552526137378,1.3145966911859206,0.7197425117548176,1.5813711134066848,1.006275259671987,5.700640828633148,565
566,0.9794024887283261,1.0585207482429286,0.7197425117548176,0.49371306331050674,0.9976018228569148,4.248980634893494,566
567,1.0786552526137378,1.3145966911859206,1.4092597305900636,1.3044418738516306,1.1591848381010954,6.266138386342448,567
568,0.8263362515770558,1.0707486024508723,1.4495502049215274,0.49371306331050674,0.9354138548605656,4.775761977120528,568
569,0.7415558911378783,0.6305537340108577,0.9922805039872016,1.2474983049951964,1.006275259671987,4.618163693803121,569
570,0.9054819396985982,1.3963241766340975,0.9860861396632304,1.2474983049951964,1.242499879669392,5.7778904406605145,570
571,0.8678564027278923,1.0585207482429286,1.0278258896034682,0.49371306331050674,0.8891451424204175,4.337061246305214,571
572,0.8952628959050906,1.224123109650942,1.3297682341358856,0.49371306331050674,1.242499879669392,5.185367182671817,572
573,0.9054819396985982,0.680951732957988,0.942027421367467,0.49371306331050674,1.1591848381010954,4.181358995435655,573
574,0.8584756847933248,0.680951732957988,0.8159628348153366,1.3044418738516306,0.8133000475488733,4.473132173967153,574
575,0.7333463771421802,0.9723825417014988,1.0278258896034682,0.49371306331050674,1.006275259671987,4.2335431314296414,575
576,0.7415558911378783,0.7390315309170211,0.8792822880152499,1.2239985401299938,1.2772224050135144,4.8610906552136575,576
577,1.038734217647062,0.680951732957988,0.9228081684095735,0.49371306331050674,1.2772224050135144,4.413429587338644,577
578,1.459483232684759,0.6305537340108577,0.9679678510471255,0.9186501417080408,0.8891451424204175,4.8658001018712005,578
579,0.7306498956473502,0.6305537340108577,0.9860861396632304,0.49371306331050674,1.242499879669392,4.083502712301337,579
580,0.9096363332414507,1.3473389003100178,0.7575418363196272,1.714617047551628,0.8133000475488733,5.542434164971597,580
581,0.7333463771421802,0.9723825417014988,0.9228081684095735,0.8527291577815652,1.006275259671987,4.487541504706805,581
582,0.8716670416259484,1.224123109650942,0.7915450433096987,0.49371306331050674,1.006275259671987,4.387323517569083,582
583,0.7333463771421802,1.5219777046726715,0.9228081684095735,1.3044418738516306,0.9976018228569148,5.48017594693297,583
584,1.0786552526137378,0.6305537340108577,0.9533796846021256,0.8527291577815652,1.006275259671987,4.521593088680273,584
585,0.9054819396985982,0.680951732957988,1.3297682341358856,0.49371306331050674,0.8133000475488733,4.223215017651852,585
586,0.8993222411175086,1.3145966911859206,0.8397123049364641,1.3044418738516306,0.8891451424204175,5.247218253511941,586
587,1.459483232684759,0.7390315309170211,1.442660767893365,1.5813711134066848,0.9354138548605656,6.157960499762396,587
588,0.8993222411175086,0.6305537340108577,0.7197425117548176,1.328136074822748,0.8891451424204175,4.46689970412635,588
589,0.8678564027278923,1.187099095268231,0.7197425117548176,0.49371306331050674,0.9976018228569148,4.2660128959183625,589
590,0.8584756847933248,1.187099095268231,0.942027421367467,0.9186501417080408,1.006275259671987,4.912527602809051,590
591,0.8622032507673212,0.6305537340108577,0.8792822880152499,1.328136074822748,0.8133000475488733,4.51347539516505,591
592,1.459483232684759,0.7390315309170211,0.8397123049364641,0.49371306331050674,0.8133000475488733,4.345240179397624,592
593,0.8403157580196393,0.6305537340108577,0.8966916327974446,2.487093984006915,1.006275259671987,5.860930368506844,593
594,0.9096363332414507,0.7390315309170211,0.7915450433096987,1.328136074822748,0.8891451424204175,4.657494124711336,594
595,1.096764396645492,0.9723825417014988,1.5382876096198153,1.328136074822748,1.006275259671987,5.941845882461541,595
596,1.459483232684759,0.6305537340108577,1.0017227098518153,1.2474983049951964,1.242499879669392,5.58175786121202,596
597,0.9054819396985982,0.680951732957988,0.9985549485209781,0.49371306331050674,0.8133000475488733,3.8920017320369444,597
598,1.459483232684759,0.680951732957988,1.6587356880978406,1.5813711134066848,0.9976018228569148,6.378143590004187,598
599,0.8584756847933248,0.9723825417014988,0.9985549485209781,0.8527291577815652,1.1591848381010954,4.841327170898462,599
600,2.150451628980766,0.9723825417014988,0.95916088366761,0.9186501417080408,0.9976018228569148,5.99824701891483,600
601,0.8952628959050906,1.185395247776377,0.7197425117548176,0.49371306331050674,1.242499879669392,4.536613598416183,601
602,0.9096363332414507,1.185395247776377,0.7741705870255384,1.328136074822748,1.2772224050135144,5.4745606478796285,602
603,0.9054819396985982,1.3145966911859206,0.9228081684095735,0.49371306331050674,1.242499879669392,4.879099742273991,603
604,1.459483232684759,1.0336291632459487,0.9505156024819665,0.9186501417080408,1.242499879669392,5.604778019790107,604
605,0.8474858648967548,0.680951732957988,0.9985549485209781,2.487093984006915,0.9354138548605656,5.949500385243202,605
606,1.096764396645492,0.6305537340108577,1.6587356880978406,0.8527291577815652,1.2772224050135144,5.51600538154927,606
607,1.4652325026195927,1.0336291632459487,1.1607487459068544,1.5813711134066848,1.006275259671987,6.247256784851068,607
608,0.7415558911378783,0.6305537340108577,0.7915450433096987,0.8527291577815652,0.9976018228569148,4.013985649096915,608
609,0.8529450192313964,1.187099095268231,0.8966916327974446,0.49371306331050674,0.8133000475488733,4.243748858156452,609
610,0.9159412351297077,0.6305537340108577,1.0278258896034682,1.2474983049951964,1.242499879669392,5.064319043408622,610
611,0.8678564027278923,1.3340296860184395,0.7197425117548176,1.5813711134066848,0.8133000475488733,5.316299761456708,611
612,0.9138297299193745,1.5219777046726715,0.9228081684095735,0.8527291577815652,0.9354138548605656,5.14675861564375,612
613,0.8993222411175086,1.3253157407797715,0.7197425117548176,0.9186501417080408,1.2772224050135144,5.140253040373653,613
614,0.9096363332414507,1.3963241766340975,0.7575418363196272,0.49371306331050674,1.2772224050135144,4.834437814519196,614
615,0.8584756847933248,0.644858734940786,0.95916088366761,0.8527291577815652,0.8891451424204175,4.204369603603704,615
616,1.004316248911696,0.6305537340108577,0.9505156024819665,0.49371306331050674,1.242499879669392,4.321598528384419,616
617,1.096764396645492,0.644858734940786,0.7915450433096987,0.49371306331050674,0.8891451424204175,3.916026380626901,617
618,0.8474858648967548,0.7390315309170211,0.9533796846021256,1.328136074822748,1.242499879669392,5.110533034908041,618
619,0.9096363332414507,1.5219777046726715,0.7995199917810841,1.2239985401299938,0.8133000475488733,5.268432617374073,619
620,0.8474858648967548,1.3963241766340975,0.8180659989575508,1.5813711134066848,0.8133000475488733,5.456547201443961,620
621,0.8993222411175086,0.9723825417014988,0.995407615147645,0.9186501417080408,0.9976018228569148,4.783364362531608,621
622,0.9096363332414507,1.185395247776377,0.9860861396632304,0.49371306331050674,0.8133000475488733,4.388130831540439,622
623,0.7415558911378783,0.644858734940786,1.50739414083809,0.49371306331050674,0.9976018228569148,4.385123653084175,623
624,1.0669260299149776,0.644858734940786,0.9228081684095735,1.2474983049951964,1.2772224050135144,5.159313643274048,624
625,1.004316248911696,0.6305537340108577,0.9679678510471255,0.49371306331050674,1.242499879669392,4.339050776949578,625
626,1.459483232684759,0.8786595995448542,1.3297682341358856,0.8527291577815652,0.8133000475488733,5.333940271695937,626
627,0.91172812023612,1.185395247776377,1.3963657634714146,1.5813711134066848,0.8133000475488733,5.888160292439469,627
628,0.7306498956473502,0.8786595995448542,0.9922805039872016,1.2474983049951964,1.2772224050135144,5.126310709188116,628
629,1.004316248911696,1.0336291632459487,0.9228081684095735,1.2474983049951964,1.242499879669392,5.450751765231806,629
630,1.1060604795039815,0.680951732957988,1.1607487459068544,1.2239985401299938,1.1591848381010954,5.330944336599913,630
631,0.91172812023612,0.644858734940786,0.9533796846021256,1.2474983049951964,1.2772224050135144,5.034687249787742,631
632,0.7415558911378783,1.9184128429683642,0.8792822880152499,0.49371306331050674,0.8133000475488733,4.846264132980872,632
633,1.0786552526137378,0.680951732957988,0.8159628348153366,1.2474983049951964,0.9976018228569148,4.820669948239174,633
634,0.8474858648967548,0.7390315309170211,0.9679678510471255,0.8527291577815652,0.8133000475488733,4.22051445219134,634
635,0.9096363332414507,1.0707486024508723,1.4092597305900636,0.49371306331050674,0.8133000475488733,4.696657777141767,635
636,0.9096363332414507,0.8786595995448542,0.7197425117548176,0.9186501417080408,0.8133000475488733,4.239988633798037,636
637,0.8622032507673212,0.8786595995448542,0.9985549485209781,0.49371306331050674,0.9976018228569148,4.230732685000575,637
638,0.7306498956473502,0.644858734940786,0.7915450433096987,1.2239985401299938,1.2772224050135144,4.668274619041343,638
639,0.8403157580196393,0.644858734940786,0.8992357508663648,0.49371306331050674,0.8133000475488733,3.69142335468617,639
640,1.1060604795039815,0.7390315309170211,1.0017227098518153,1.2474983049951964,1.1591848381010954,5.253497863369109,640
641,0.9054819396985982,0.644858734940786,0.9069565302484662,1.714617047551628,0.9354138548605656,5.107328107300044,641
642,0.8263362515770558,0.680951732957988,1.0278258896034682,1.2474983049951964,1.242499879669392,5.025112058803101,642
643,0.7333463771421802,0.8786595995448542,0.7915450433096987,0.49371306331050674,0.9976018228569148,3.8948659061641546,643
644,1.0786552526137378,0.6305537340108577,1.3297682341358856,0.49371306331050674,1.006275259671987,4.538965543742975,644
645,1.0786552526137378,0.7390315309170211,0.7995199917810841,0.8527291577815652,1.2772224050135144,4.747158338106923,645
646,1.0669260299149776,1.0585207482429286,0.7741705870255384,1.2239985401299938,1.006275259671987,5.129891164985425,646
647,1.459483232684759,0.680951732957988,0.9860861396632304,0.8527291577815652,0.9354138548605656,4.914664117948108,647
648,0.8678564027278923,1.3253157407797715,0.8992357508663648,1.5813711134066848,0.8891451424204175,5.562924150201131,648
649,0.7333463771421802,0.644858734940786,0.9679678510471255,1.714617047551628,0.8891451424204175,4.949935153102137,649
650,0.9159412351297077,0.7390315309170211,1.0278258896034682,1.3044418738516306,0.8133000475488733,4.800540577050701,650
651,0.9054819396985982,0.7390315309170211,0.8397123049364641,1.714617047551628,0.9976018228569148,5.196444645960626,651
652,1.459483232684759,0.9723825417014988,0.7575418363196272,2.487093984006915,1.1591848381010954,6.835686432813896,652
653,0.9159412351297077,0.7390315309170211,0.7575418363196272,0.49371306331050674,1.2772224050135144,4.183450070690377,653
654,0.9054819396985982,1.187099095268231,0.7575418363196272,0.49371306331050674,1.006275259671987,4.35011119426895,654
655,1.459483232684759,0.680951732957988,0.7575418363196272,0.8527291577815652,0.8891451424204175,4.639851102164357,655
656,0.8403157580196393,0.6305537340108577,1.014602253400359,0.8527291577815652,0.9976018228569148,4.335802726069336,656
657,0.8263362515770558,1.3963241766340975,1.0278258896034682,0.49371306331050674,0.9354138548605656,4.679613235985694,657
658,0.9096363332414507,0.7390315309170211,1.0882235724812517,1.3044418738516306,0.9976018228569148,5.038935133348269,658
659,1.004316248911696,1.0336291632459487,0.7995199917810841,1.5813711134066848,0.8133000475488733,5.232136564894287,659
660,0.8263362515770558,0.644858734940786,0.7197425117548176,1.2239985401299938,0.9354138548605656,4.350349893263219,660
661,1.459483232684759,0.7390315309170211,0.995407615147645,1.714617047551628,0.8133000475488733,5.7218394738499265,661
662,0.9096363332414507,1.224123109650942,0.7915450433096987,0.9186501417080408,1.1591848381010954,5.003139466011227,662
663,0.9159412351297077,1.5219777046726715,1.0017227098518153,0.8527291577815652,0.9976018228569148,5.289972630292674,663
664,1.0068797947240453,0.6305537340108577,0.8966916327974446,0.49371306331050674,1.242499879669392,4.270338104512247,664
665,0.7306498956473502,1.0336291632459487,1.3963657634714146,0.49371306331050674,0.9354138548605656,4.589771740535786,665
666,1.0068797947240453,0.7390315309170211,0.9985549485209781,1.328136074822748,1.006275259671987,5.07887760865678,666
667,0.8993222411175086,0.7390315309170211,0.9069565302484662,1.2239985401299938,0.8133000475488733,4.582608889961863,667
668,0.8263362515770558,0.680951732957988,0.8374960112727121,0.49371306331050674,1.2772224050135144,4.115719464131777,668
669,0.8584756847933248,1.3253157407797715,0.8792822880152499,0.49371306331050674,0.8891451424204175,4.44593191931927,669
670,0.8678564027278923,0.680951732957988,0.9985549485209781,1.2474983049951964,0.8891451424204175,4.684006531622472,670
671,2.031160474139723,1.187099095268231,0.942027421367467,1.328136074822748,1.006275259671987,6.494698325270155,671
672,0.7306498956473502,1.0336291632459487,1.442660767893365,1.2474983049951964,1.1591848381010954,5.613622969882956,672
673,0.8993222411175086,1.5902529024739913,1.1273105919010336,1.2239985401299938,0.8133000475488733,5.654184323171401,673
674,0.9054819396985982,0.644858734940786,0.9860861396632304,0.9186501417080408,0.9354138548605656,4.3904908108712215,674
675,0.9096363332414507,1.3145966911859206,1.3297682341358856,0.49371306331050674,0.9354138548605656,4.983128176734329,675
676,1.459483232684759,1.185395247776377,0.7837277394877064,0.9186501417080408,1.242499879669392,5.589756241326276,676
677,1.459483232684759,1.224123109650942,1.1607487459068544,0.49371306331050674,1.1591848381010954,5.497252989654157,677
678,0.7333463771421802,0.6305537340108577,0.9533796846021256,0.9186501417080408,0.8133000475488733,4.049229985012078,678
679,1.459483232684759,0.6305537340108577,0.7197425117548176,0.49371306331050674,0.8133000475488733,4.1167925893098145,679
680,1.6665108674974691,2.0192837802501344,0.9533796846021256,1.328136074822748,0.9354138548605656,6.9027242620330425,680
681,0.9054819396985982,0.644858734940786,0.95916088366761,1.2474983049951964,0.8133000475488733,4.570299910851064,681
682,0.8529450192313964,0.9723825417014988,0.7197425117548176,1.5813711134066848,0.8133000475488733,4.939741233643272,682
683,1.7860975252947346,0.7390315309170211,0.9228081684095735,1.3044418738516306,0.9976018228569148,5.7499809213298745,683
684,0.9794024887283261,1.3473389003100178,1.1607487459068544,2.487093984006915,0.9976018228569148,6.972185941809028,684
685,0.7306498956473502,0.644858734940786,0.9985549485209781,0.8527291577815652,0.8891451424204175,4.1159378793110974,685
686,0.8529450192313964,0.680951732957988,1.4092597305900636,0.49371306331050674,0.9354138548605656,4.37228340095052,686
687,0.8622032507673212,0.7390315309170211,0.8792822880152499,0.49371306331050674,0.8133000475488733,3.787530180558972,687
688,0.91172812023612,0.8786595995448542,0.7575418363196272,1.2239985401299938,0.8133000475488733,4.585228143779468,688
689,0.7415558911378783,0.7390315309170211,1.3355392346491888,1.2239985401299938,1.242499879669392,5.282625076503474,689
690,1.0669260299149776,1.0707486024508723,1.0278258896034682,0.9186501417080408,1.242499879669392,5.3266505433467515,690
691,0.8403157580196393,0.680951732957988,1.1273105919010336,1.2239985401299938,0.8891451424204175,4.761721765429073,691
692,0.9794024887283261,0.7390315309170211,0.7575418363196272,1.2239985401299938,0.9354138548605656,4.635388250955534,692
693,1.096764396645492,0.6305537340108577,1.3297682341358856,1.3044418738516306,1.1591848381010954,5.520713076744961,693
694,0.8993222411175086,0.8786595995448542,0.9505156024819665,1.714617047551628,1.006275259671987,5.449389750367944,694
695,0.91172812023612,1.187099095268231,0.7837277394877064,0.9186501417080408,0.9354138548605656,4.736618951560664,695
696,0.8403157580196393,0.644858734940786,1.2593125970044623,0.49371306331050674,0.9354138548605656,4.17361400813596,696
697,0.8263362515770558,1.185395247776377,0.8792822880152499,0.49371306331050674,1.1591848381010954,4.543911688780284,697
698,1.453785246075457,1.187099095268231,0.7575418363196272,1.5813711134066848,0.8891451424204175,5.868942433490417,698
699,0.9138297299193745,0.644858734940786,0.8792822880152499,0.8527291577815652,1.2772224050135144,4.56792231567049,699
700,0.9096363332414507,0.8786595995448542,0.942027421367467,0.49371306331050674,0.9354138548605656,4.159450272324844,700
701,0.8678564027278923,0.680951732957988,0.9679678510471255,0.8527291577815652,1.1591848381010954,4.528689982615667,701
702,1.459483232684759,1.0707486024508723,0.9679678510471255,0.49371306331050674,1.006275259671987,4.998188009165251,702
703,0.9054819396985982,0.644858734940786,0.9860861396632304,1.714617047551628,0.9976018228569148,5.248645684711157,703
704,0.7333463771421802,1.0707486024508723,0.9505156024819665,0.49371306331050674,0.8133000475488733,4.061623692934399,704
705,0.8403157580196393,0.644858734940786,1.3355392346491888,0.8527291577815652,0.8133000475488733,4.486742932940053,705
706,1.1029434388868302,0.8786595995448542,1.0017227098518153,0.9186501417080408,1.242499879669392,5.144475769660932,706
707,1.0068797947240453,2.043794772464461,0.9228081684095735,0.9186501417080408,0.9354138548605656,5.827546732166687,707
708,0.8263362515770558,0.644858734940786,1.442660767893365,1.2474983049951964,0.8133000475488733,4.974654106955276,708
709,0.9138297299193745,0.680951732957988,1.6587356880978406,0.9186501417080408,0.9976018228569148,5.169769115540158,709
710,0.9096363332414507,1.0707486024508723,1.3297682341358856,0.9186501417080408,0.9354138548605656,5.164217166396816,710
711,0.9054819396985982,1.3253157407797715,0.942027421367467,0.8527291577815652,1.242499879669392,5.268054139296794,711
712,0.8403157580196393,0.9723825417014988,0.7995199917810841,0.49371306331050674,1.1591848381010954,4.265116192913824,712
713,0.8403157580196393,0.7390315309170211,0.9679678510471255,0.49371306331050674,1.2772224050135144,4.318250608307807,713
714,0.9159412351297077,1.3253157407797715,0.9069565302484662,1.3044418738516306,1.2772224050135144,5.72987778502309,714
715,0.8678564027278923,1.3340296860184395,0.7197425117548176,0.9186501417080408,0.9976018228569148,4.837880565066105,715
716,1.096764396645492,0.9723825417014988,1.0278258896034682,0.8527291577815652,0.9976018228569148,4.94730380858894,716
717,1.038734217647062,0.644858734940786,0.8180659989575508,0.49371306331050674,0.8891451424204175,3.8845171572763233,717
718,0.8993222411175086,1.0585207482429286,1.014602253400359,0.49371306331050674,0.8891451424204175,4.35530344849172,718
719,0.8622032507673212,0.7390315309170211,0.942027421367467,1.2474983049951964,0.8133000475488733,4.604060555595879,719
720,1.096764396645492,0.680951732957988,0.942027421367467,0.8527291577815652,0.9976018228569148,4.570074531609428,720
721,1.096764396645492,1.185395247776377,0.8180659989575508,0.9186501417080408,1.1591848381010954,5.178060623188555,721
722,1.459483232684759,0.6305537340108577,1.3297682341358856,0.49371306331050674,1.006275259671987,4.919793523813997,722
723,0.8678564027278923,1.0336291632459487,1.3297682341358856,0.49371306331050674,0.9354138548605656,4.660380718280799,723
724,1.038734217647062,0.680951732957988,0.9985549485209781,0.49371306331050674,1.1591848381010954,4.37113880053763,724
725,0.8529450192313964,1.0707486024508723,0.8792822880152499,1.328136074822748,1.1591848381010954,5.290296822621363,725
726,0.9138297299193745,1.3253157407797715,0.8397123049364641,1.2239985401299938,0.9354138548605656,5.23827017062617,726
727,0.9054819396985982,0.6305537340108577,0.8792822880152499,0.8527291577815652,0.8133000475488733,4.081347167055144,727
728,0.9054819396985982,0.644858734940786,0.8966916327974446,1.3044418738516306,0.9976018228569148,4.749076004145374,728
729,0.8263362515770558,1.3963241766340975,0.8180659989575508,0.49371306331050674,1.242499879669392,4.776939370148602,729
730,1.038734217647062,1.224123109650942,1.3963657634714146,1.328136074822748,1.2772224050135144,6.264581570605681,730
731,0.8716670416259484,2.0192837802501344,0.8374960112727121,0.8527291577815652,0.9354138548605656,5.516589845790926,731
732,0.9159412351297077,0.8786595995448542,1.3297682341358856,1.2239985401299938,1.1591848381010954,5.507552447041537,732
733,0.8622032507673212,1.0336291632459487,0.8159628348153366,0.49371306331050674,0.8133000475488733,4.018808359687987,733
734,1.038734217647062,1.0707486024508723,0.8966916327974446,0.9186501417080408,0.9354138548605656,4.860238449463985,734
735,0.9054819396985982,1.185395247776377,0.8180659989575508,0.49371306331050674,0.9354138548605656,4.338070104603598,735
736,0.91172812023612,0.680951732957988,0.9860861396632304,1.714617047551628,1.2772224050135144,5.570605445422482,736
737,0.8474858648967548,1.3340296860184395,0.9679678510471255,1.328136074822748,0.9976018228569148,5.475221299641983,737
738,1.1029434388868302,0.644858734940786,0.942027421367467,1.2239985401299938,0.8891451424204175,4.802973277745495,738
739,1.459483232684759,0.680951732957988,1.3297682341358856,2.487093984006915,0.8891451424204175,6.846442326205965,739
740,0.9096363332414507,1.3473389003100178,0.7837277394877064,1.2239985401299938,0.9354138548605656,5.200115368029735,740
741,0.91172812023612,1.0707486024508723,0.7741705870255384,1.5813711134066848,1.006275259671987,5.3442936827912035,741
742,1.459483232684759,1.224123109650942,0.995407615147645,1.5813711134066848,0.8891451424204175,6.149530213310449,742
743,0.8678564027278923,1.0336291632459487,0.7741705870255384,0.49371306331050674,1.242499879669392,4.411869095979278,743
744,1.1029434388868302,1.0707486024508723,1.1273105919010336,0.9186501417080408,0.8133000475488733,5.03295282249565,744
745,1.004316248911696,1.3145966911859206,1.0882235724812517,0.49371306331050674,1.1591848381010954,5.06003441399047,745
746,0.7333463771421802,1.0585207482429286,0.9922805039872016,0.8527291577815652,1.006275259671987,4.643152046825863,746
747,0.8529450192313964,1.5219777046726715,0.95916088366761,0.9186501417080408,0.9354138548605656,5.188147604140284,747
748,0.9054819396985982,1.0707486024508723,0.7915450433096987,0.49371306331050674,0.8891451424204175,4.150633791190094,748
749,0.8952628959050906,0.8786595995448542,1.014602253400359,0.49371306331050674,0.8891451424204175,4.171382954581228,749
750,1.038734217647062,0.644858734940786,0.8966916327974446,0.9186501417080408,0.8891451424204175,4.388079869513751,750
751,1.0669260299149776,0.7390315309170211,0.7995199917810841,1.3044418738516306,1.1591848381010954,5.069104264565809,751
752,0.9138297299193745,0.644858734940786,1.3297682341358856,1.2239985401299938,0.8891451424204175,5.001600381546458,752
753,0.8678564027278923,0.6305537340108577,1.0882235724812517,0.49371306331050674,1.2772224050135144,4.357569177544023,753
754,1.004316248911696,0.644858734940786,1.9017796935194327,0.49371306331050674,1.1591848381010954,5.203852578783517,754
755,0.7306498956473502,0.644858734940786,0.8966916327974446,0.49371306331050674,0.9354138548605656,3.701327181556653,755
756,1.459483232684759,1.3963241766340975,0.7837277394877064,1.3044418738516306,1.2772224050135144,6.221199427671708,756
757,1.038734217647062,1.0336291632459487,0.9922805039872016,1.2239985401299938,0.8891451424204175,5.177787567430624,757
758,0.9096363332414507,1.224123109650942,0.9228081684095735,0.8527291577815652,0.8133000475488733,4.722596816632405,758
759,0.7306498956473502,0.7390315309170211,1.1963276574228012,1.2239985401299938,0.8891451424204175,4.779152766537584,759
760,0.7415558911378783,1.0336291632459487,1.0278258896034682,1.2474983049951964,1.242499879669392,5.293009128651883,760
761,0.7306498956473502,1.5219777046726715,0.7741705870255384,0.9186501417080408,0.9354138548605656,4.880862183914166,761
762,0.91172812023612,1.5902529024739913,0.8159628348153366,0.9186501417080408,1.242499879669392,5.479093878902881,762
763,0.7415558911378783,0.9723825417014988,0.9860861396632304,0.49371306331050674,0.8133000475488733,4.007037683361988,763
764,0.7415558911378783,0.9723825417014988,0.9069565302484662,1.3044418738516306,1.1591848381010954,5.08452167504057,764
765,0.7333463771421802,1.185395247776377,0.9533796846021256,0.9186501417080408,0.8891451424204175,4.679916593649141,765
766,1.459483232684759,1.0336291632459487,1.0882235724812517,0.49371306331050674,1.242499879669392,5.317548911391858,766
767,0.8474858648967548,1.185395247776377,0.7741705870255384,1.5813711134066848,0.9976018228569148,5.386024635962269,767
768,0.8403157580196393,1.0707486024508723,1.3355392346491888,0.8527291577815652,1.1591848381010954,5.258517591002361,768
769,1.1029434388868302,1.3145966911859206,1.3963657634714146,0.9186501417080408,0.9354138548605656,5.667969890112771,769
770,0.9096363332414507,1.0707486024508723,0.7197425117548176,0.49371306331050674,0.8133000475488733,4.007140558306521,770
771,0.8993222411175086,0.7390315309170211,0.7915450433096987,0.8527291577815652,0.8133000475488733,4.095928020674667,771
772,0.8529450192313964,1.0585207482429286,1.3297682341358856,0.49371306331050674,0.9354138548605656,4.670360919781284,772
773,0.7333463771421802,1.0707486024508723,0.995407615147645,0.49371306331050674,0.9354138548605656,4.22862951291177,773
774,0.7333463771421802,1.0585207482429286,1.3355392346491888,0.49371306331050674,0.9976018228569148,4.618721246201719,774
775,1.459483232684759,1.0336291632459487,0.8792822880152499,0.9186501417080408,1.1591848381010954,5.450229663755094,775
776,1.706851280063953,0.6305537340108577,0.8397123049364641,0.8527291577815652,1.1591848381010954,5.189031314893935,776
777,0.9096363332414507,0.9723825417014988,0.9679678510471255,0.49371306331050674,0.8891451424204175,4.232844931720999,777
778,1.038734217647062,0.680951732957988,0.8792822880152499,1.714617047551628,0.9976018228569148,5.311187109028842,778
779,1.096764396645492,1.224123109650942,0.9860861396632304,0.8527291577815652,1.006275259671987,5.165978063413217,779
780,1.1060604795039815,1.3473389003100178,1.5789660261803067,1.3044418738516306,1.2772224050135144,6.61402968485945,780
781,0.9138297299193745,1.185395247776377,0.8374960112727121,1.2239985401299938,1.242499879669392,5.40321940876785,781
782,0.9096363332414507,1.3473389003100178,0.7197425117548176,0.9186501417080408,1.2772224050135144,5.1725902920278415,782
783,0.7306498956473502,1.3963241766340975,1.0017227098518153,0.8527291577815652,0.8133000475488733,4.794725987463702,783
784,1.096764396645492,1.0585207482429286,1.2593125970044623,0.49371306331050674,1.006275259671987,4.914586064875376,784
785,0.8474858648967548,1.3963241766340975,0.8397123049364641,1.328136074822748,1.1591848381010954,5.570843259391159,785
786,0.8529450192313964,0.9723825417014988,0.8792822880152499,0.49371306331050674,0.8133000475488733,4.011622959807525,786
787,1.3167986539728664,1.3473389003100178,0.983018489191347,0.8527291577815652,0.9354138548605656,5.435299056116363,787
788,0.7333463771421802,0.9723825417014988,0.9985549485209781,1.5813711134066848,0.8891451424204175,5.17480012319176,788
789,0.8403157580196393,1.0336291632459487,0.9860861396632304,0.8527291577815652,1.1591848381010954,4.871945056811479,789
790,0.8584756847933248,1.3340296860184395,0.9533796846021256,1.5813711134066848,1.2772224050135144,6.0044785738340885,790
791,0.9159412351297077,1.185395247776377,0.95916088366761,0.49371306331050674,1.006275259671987,4.560485689556188,791
792,0.8263362515770558,0.7390315309170211,0.8397123049364641,1.328136074822748,1.006275259671987,4.739491421925276,792
793,0.8622032507673212,1.187099095268231,1.1607487459068544,1.2474983049951964,0.8133000475488733,5.270849444486476,793
794,1.0068797947240453,1.187099095268231,1.3297682341358856,0.49371306331050674,1.006275259671987,5.023735447110656,794
795,0.9054819396985982,1.3145966911859206,0.8159628348153366,0.8527291577815652,0.8891451424204175,4.777915765901838,795
796,0.8952628959050906,1.3473389003100178,0.7995199917810841,0.49371306331050674,1.1591848381010954,4.695019689407795,796
797,1.1060604795039815,0.6305537340108577,1.2293940726192063,1.328136074822748,1.2772224050135144,5.571366765970308,797
798,0.8678564027278923,1.3473389003100178,0.8180659989575508,1.2239985401299938,1.006275259671987,5.263535101797441,798
799,0.8529450192313964,1.0707486024508723,0.9228081684095735,0.49371306331050674,0.8133000475488733,4.153514900951222,799
800,0.9054819396985982,1.185395247776377,0.8397123049364641,1.5813711134066848,0.8133000475488733,5.325260653366997,800
801,1.0068797947240453,2.0192837802501344,0.8966916327974446,0.8527291577815652,0.9354138548605656,5.710998220413756,801
802,0.9096363332414507,0.9723825417014988,0.9505156024819665,0.49371306331050674,1.1591848381010954,4.485432378836519,802
803,0.8678564027278923,0.644858734940786,0.9069565302484662,1.2239985401299938,1.2772224050135144,4.920892613060652,803
804,0.8993222411175086,1.5219777046726715,0.7915450433096987,0.49371306331050674,0.8133000475488733,4.519858099959259,804
805,1.038734217647062,1.3473389003100178,1.2593125970044623,0.49371306331050674,1.2772224050135144,5.416321183285564,805
806,0.8993222411175086,1.187099095268231,0.9228081684095735,1.3044418738516306,0.8891451424204175,5.202816521067361,806
807,0.8716670416259484,0.6305537340108577,1.4092597305900636,0.9186501417080408,0.9354138548605656,4.765544502795477,807
808,0.8952628959050906,1.3145966911859206,1.0017227098518153,1.714617047551628,1.2772224050135144,6.203421749507969,808
809,0.9096363332414507,1.0585207482429286,1.6587356880978406,0.8527291577815652,0.8891451424204175,5.368767069784203,809
810,1.459483232684759,1.0585207482429286,0.9679678510471255,0.8527291577815652,0.8891451424204175,5.227846132176796,810
811,0.8993222411175086,1.224123109650942,0.9922805039872016,1.714617047551628,0.8133000475488733,5.643642949856154,811
812,0.9096363332414507,0.6305537340108577,0.9228081684095735,0.49371306331050674,1.242499879669392,4.1992111786417805,812
813,0.9794024887283261,1.0585207482429286,1.3355392346491888,1.2474983049951964,0.9354138548605656,5.5563746314762055,813
814,1.3167986539728664,0.644858734940786,0.8159628348153366,1.328136074822748,0.8133000475488733,4.919056346100611,814
815,1.453785246075457,0.7390315309170211,0.9533796846021256,0.8527291577815652,1.006275259671987,5.0052008790481555,815
816,0.8529450192313964,0.644858734940786,0.8992357508663648,0.49371306331050674,0.9976018228569148,3.8883543912059686,816
817,0.8403157580196393,1.3473389003100178,0.9228081684095735,0.49371306331050674,1.242499879669392,4.84667576971913,817
818,1.004316248911696,0.7390315309170211,0.9228081684095735,0.49371306331050674,1.242499879669392,4.402368891218189,818
819,0.9159412351297077,1.3145966911859206,0.7837277394877064,0.49371306331050674,0.8891451424204175,4.397123871534259,819
820,1.004316248911696,0.8786595995448542,0.983018489191347,0.49371306331050674,0.9354138548605656,4.2951212558189695,820
821,0.8622032507673212,1.224123109650942,1.2593125970044623,0.49371306331050674,1.006275259671987,4.845627280405219,821
822,1.453785246075457,0.644858734940786,0.7915450433096987,0.49371306331050674,1.1591848381010954,4.543086925737544,822
823,1.459483232684759,1.0585207482429286,1.0882235724812517,1.328136074822748,1.2772224050135144,6.211586033245202,823
824,1.004316248911696,0.644858734940786,0.8159628348153366,1.714617047551628,0.9976018228569148,5.177356689076362,824
825,1.0068797947240453,0.7390315309170211,0.9860861396632304,0.9186501417080408,1.2772224050135144,4.927870012025853,825
826,0.91172812023612,1.185395247776377,0.8792822880152499,0.8527291577815652,0.9354138548605656,4.764548668669877,826
827,0.8993222411175086,0.680951732957988,0.7741705870255384,1.5813711134066848,1.006275259671987,4.942090934179706,827
828,1.0669260299149776,0.644858734940786,0.7741705870255384,0.49371306331050674,1.006275259671987,3.985943674863796,828
829,0.9096363332414507,1.0336291632459487,1.4706595036895087,0.8527291577815652,0.8891451424204175,5.155799300378892,829
830,0.7415558911378783,0.8786595995448542,0.8180659989575508,1.2239985401299938,1.2772224050135144,4.939502434783791,830
831,0.8993222411175086,0.9723825417014988,0.8180659989575508,1.5813711134066848,0.8891451424204175,5.160287037603661,831
832,0.8263362515770558,1.3145966911859206,1.1963276574228012,0.49371306331050674,1.242499879669392,5.073473543165676,832
833,0.8952628959050906,0.644858734940786,1.1273105919010336,1.714617047551628,0.8891451424204175,5.271194412718955,833
834,0.7415558911378783,0.7390315309170211,0.7837277394877064,0.9186501417080408,0.9354138548605656,4.118379158111212,834
835,0.8993222411175086,0.7390315309170211,0.8159628348153366,0.49371306331050674,0.8133000475488733,3.761329717709246,835
836,1.096764396645492,2.043794772464461,1.0882235724812517,2.487093984006915,0.8891451424204175,7.605021868018538,836
837,1.459483232684759,1.3963241766340975,1.0278258896034682,1.2239985401299938,1.1591848381010954,6.266816677153415,837
838,0.8993222411175086,1.5219777046726715,1.0278258896034682,2.487093984006915,0.8891451424204175,6.825364961820981,838
839,0.9159412351297077,1.3145966911859206,1.0278258896034682,1.328136074822748,1.242499879669392,5.828999770411237,839
840,1.1060604795039815,0.680951732957988,0.95916088366761,1.3044418738516306,0.9354138548605656,4.986028824841776,840
841,0.8716670416259484,1.3145966911859206,0.942027421367467,1.2239985401299938,1.006275259671987,5.3585649539813165,841
842,0.9159412351297077,0.680951732957988,0.9228081684095735,0.9186501417080408,1.006275259671987,4.444626537877297,842
843,0.8993222411175086,1.185395247776377,1.1963276574228012,0.49371306331050674,1.006275259671987,4.781033469299181,843
844,0.9054819396985982,1.224123109650942,0.9985549485209781,1.328136074822748,0.8891451424204175,5.345441215113684,844
845,1.459483232684759,0.644858734940786,1.0278258896034682,1.3044418738516306,0.8891451424204175,5.325754873501062,845
846,1.459483232684759,0.7390315309170211,1.0882235724812517,0.49371306331050674,1.242499879669392,5.022951279062931,846
847,0.8716670416259484,0.644858734940786,0.942027421367467,0.9186501417080408,1.242499879669392,4.619703219311635,847
848,1.096764396645492,0.644858734940786,0.8966916327974446,1.2474983049951964,1.006275259671987,4.892088329050907,848
849,1.3167986539728664,1.0336291632459487,0.7197425117548176,1.3044418738516306,0.9976018228569148,5.372214025682178,849
850,0.7306498956473502,0.644858734940786,0.7837277394877064,0.8527291577815652,0.9976018228569148,4.009567350714323,850
851,0.9054819396985982,1.0336291632459487,0.9922805039872016,1.2474983049951964,0.9354138548605656,5.11430376678751,851
852,0.7306498956473502,1.0336291632459487,1.0882235724812517,0.9186501417080408,1.1591848381010954,4.9303376111836865,852
853,0.8993222411175086,1.0707486024508723,0.8792822880152499,1.714617047551628,1.1591848381010954,5.723155017236355,853
854,0.8952628959050906,0.9723825417014988,0.7575418363196272,1.3044418738516306,1.242499879669392,5.172129027447239,854
855,0.7333463771421802,1.185395247776377,0.7197425117548176,0.49371306331050674,0.8891451424204175,4.021342342404299,855
856,1.459483232684759,0.6305537340108577,0.9860861396632304,1.328136074822748,0.9976018228569148,5.40186100403851,856
857,0.7306498956473502,0.680951732957988,0.8992357508663648,1.2239985401299938,0.9354138548605656,4.470249774462262,857
858,0.8474858648967548,1.9184128429683642,0.942027421367467,0.49371306331050674,1.006275259671987,5.20791445221508,858
859,0.7415558911378783,1.5902529024739913,1.9017796935194327,1.2474983049951964,0.8891451424204175,6.370231934546917,859
860,1.0068797947240453,0.680951732957988,0.9228081684095735,1.5813711134066848,1.242499879669392,5.434510689167683,860
861,0.9794024887283261,0.680951732957988,1.5382876096198153,1.2474983049951964,1.1591848381010954,5.605324974402421,861
862,0.9159412351297077,1.187099095268231,1.9017796935194327,0.49371306331050674,0.9976018228569148,5.496134910084793,862
863,0.8993222411175086,0.680951732957988,0.9228081684095735,0.9186501417080408,1.006275259671987,4.428007543865098,863
864,0.7306498956473502,1.3253157407797715,0.9505156024819665,0.9186501417080408,0.8133000475488733,4.7384314281660025,864
865,1.0068797947240453,1.3963241766340975,0.9228081684095735,1.328136074822748,0.8891451424204175,5.5432933570108816,865
866,0.8678564027278923,1.3340296860184395,0.9985549485209781,1.3044418738516306,0.8133000475488733,5.318182958667814,866
867,1.038734217647062,1.0585207482429286,0.9860861396632304,0.49371306331050674,1.2772224050135144,4.854276573877242,867
868,1.459483232684759,0.7390315309170211,0.8992357508663648,1.3044418738516306,0.9354138548605656,5.337606243180342,868
869,0.8952628959050906,1.0585207482429286,0.95916088366761,1.2474983049951964,1.006275259671987,5.166718092482812,869
870,0.8952628959050906,1.5902529024739913,1.1273105919010336,0.49371306331050674,0.8133000475488733,4.919839501139496,870
871,1.038734217647062,1.0336291632459487,1.3297682341358856,1.2239985401299938,0.9976018228569148,5.623731978015805,871
872,0.9138297299193745,1.0585207482429286,1.442660767893365,1.2239985401299938,1.006275259671987,5.64528504585765,872
873,0.7333463771421802,1.187099095268231,0.9228081684095735,0.9186501417080408,0.9354138548605656,4.697317637388591,873
874,0.8716670416259484,0.9723825417014988,1.1607487459068544,0.9186501417080408,0.8133000475488733,4.736748518491216,874
875,1.0669260299149776,0.9723825417014988,1.1963276574228012,0.8527291577815652,1.1591848381010954,5.247550224921939,875
876,0.9096363332414507,0.6305537340108577,0.942027421367467,1.2474983049951964,0.8133000475488733,4.543015841163845,876
877,0.9794024887283261,0.680951732957988,0.7197425117548176,0.8527291577815652,0.8891451424204175,4.121971033643114,877
878,0.8529450192313964,0.9723825417014988,0.7741705870255384,0.49371306331050674,0.8133000475488733,3.9065112588178135,878
879,1.453785246075457,1.3145966911859206,0.8966916327974446,0.9186501417080408,0.8133000475488733,5.397023759315736,879
880,0.8584756847933248,1.187099095268231,0.9985549485209781,0.8527291577815652,0.9976018228569148,4.894460709221014,880
881,0.9054819396985982,0.7390315309170211,0.9860861396632304,0.49371306331050674,1.006275259671987,4.130587933261344,881
882,1.0669260299149776,1.0585207482429286,0.8180659989575508,0.49371306331050674,1.1591848381010954,4.596410678527059,882
883,0.8474858648967548,1.224123109650942,0.9922805039872016,1.2239985401299938,0.9354138548605656,5.223301873525458,883
884,0.8993222411175086,1.187099095268231,0.7741705870255384,1.328136074822748,0.8133000475488733,5.0020280457828985,884
885,0.8993222411175086,0.9723825417014988,1.3297682341358856,1.2239985401299938,0.8891451424204175,5.314616699505304,885
886,0.7306498956473502,0.6305537340108577,0.8397123049364641,1.2239985401299938,0.8891451424204175,4.314059617145084,886
887,1.0669260299149776,1.3145966911859206,1.0414082901549084,0.9186501417080408,0.9354138548605656,5.276995007824413,887
888,0.8529450192313964,1.187099095268231,1.3297682341358856,1.5813711134066848,0.9354138548605656,5.886597316902764,888
889,0.91172812023612,1.185395247776377,0.8966916327974446,0.49371306331050674,0.8891451424204175,4.376673206540866,889
890,0.8993222411175086,1.187099095268231,1.3297682341358856,0.9186501417080408,0.8133000475488733,5.148139759778539,890
891,0.9054819396985982,0.644858734940786,0.9985549485209781,0.49371306331050674,1.006275259671987,4.0488839461428565,891
892,0.8622032507673212,0.8786595995448542,1.1273105919010336,0.49371306331050674,0.8133000475488733,4.175186553072589,892
893,1.453785246075457,1.0707486024508723,0.9505156024819665,0.9186501417080408,0.8891451424204175,5.282844735136754,893
894,0.9054819396985982,0.8786595995448542,0.9922805039872016,1.3044418738516306,1.2772224050135144,5.358086322095799,894
895,0.8263362515770558,0.680951732957988,0.8159628348153366,0.49371306331050674,0.8133000475488733,3.6302639302097606,895
896,0.8474858648967548,0.9723825417014988,1.442660767893365,0.8527291577815652,0.9354138548605656,5.05067218713375,896
897,1.038734217647062,1.3340296860184395,0.7575418363196272,0.8527291577815652,0.9354138548605656,4.91844875262726,897
898,0.8678564027278923,0.6305537340108577,0.9860861396632304,1.328136074822748,1.1591848381010954,4.971817189325824,898
899,0.9794024887283261,0.680951732957988,0.7995199917810841,0.49371306331050674,0.8133000475488733,3.766887324326778,899
900,1.004316248911696,0.7390315309170211,0.8966916327974446,1.714617047551628,1.1591848381010954,5.513841298278885,900
901,1.459483232684759,1.224123109650942,0.95916088366761,0.8527291577815652,0.9354138548605656,5.430910238645443,901
902,0.8993222411175086,1.0707486024508723,0.9069565302484662,0.49371306331050674,0.8133000475488733,4.184040484676228,902
903,0.7333463771421802,1.0336291632459487,1.6587356880978406,0.8527291577815652,0.9354138548605656,5.213854241128101,903
904,1.1029434388868302,0.644858734940786,1.0882235724812517,0.8527291577815652,0.9354138548605656,4.624168758950999,904
905,0.8716670416259484,1.9184128429683642,1.0278258896034682,0.49371306331050674,1.242499879669392,5.55411871717768,905
906,1.453785246075457,0.7390315309170211,0.8159628348153366,1.2474983049951964,0.9976018228569148,5.253879739659926,906
907,1.706851280063953,0.644858734940786,0.9860861396632304,1.328136074822748,0.9354138548605656,5.601346084351284,907
908,1.7860975252947346,0.644858734940786,0.8792822880152499,0.49371306331050674,1.2772224050135144,5.081174016574792,908
909,1.038734217647062,0.6305537340108577,0.8992357508663648,0.9186501417080408,1.1591848381010954,4.646358682333421,909
910,0.8584756847933248,1.3963241766340975,1.1963276574228012,0.49371306331050674,0.8133000475488733,4.758140629709604,910
911,0.9054819396985982,0.8786595995448542,0.9228081684095735,1.2474983049951964,1.006275259671987,4.960723272320209,911
912,0.7306498956473502,0.8786595995448542,1.1963276574228012,1.2474983049951964,0.9354138548605656,4.988549312470767,912
913,0.8952628959050906,1.0707486024508723,0.9985549485209781,1.328136074822748,0.8891451424204175,5.181847664120107,913
914,0.8993222411175086,1.185395247776377,0.9860861396632304,0.49371306331050674,0.9354138548605656,4.499930546728189,914
915,1.459483232684759,0.6305537340108577,1.3355392346491888,1.2239985401299938,0.9354138548605656,5.584988596335365,915
916,0.8474858648967548,0.6305537340108577,0.7837277394877064,1.2474983049951964,0.9354138548605656,4.444679498251081,916
917,0.91172812023612,1.0336291632459487,0.7575418363196272,0.49371306331050674,1.242499879669392,4.439112062781595,917
918,1.038734217647062,0.680951732957988,0.7837277394877064,0.49371306331050674,0.9354138548605656,3.9325406082638286,918
919,0.8622032507673212,0.7390315309170211,0.7915450433096987,1.2239985401299938,1.006275259671987,4.623053624796022,919
920,0.91172812023612,0.7390315309170211,1.1607487459068544,0.8527291577815652,0.9354138548605656,4.599651409702126,920
921,1.459483232684759,0.680951732957988,0.8792822880152499,0.49371306331050674,1.1591848381010954,4.6726151550695985,921
922,0.8622032507673212,0.644858734940786,1.3297682341358856,1.5813711134066848,0.9354138548605656,5.3536151881112435,922
923,0.8474858648967548,1.5219777046726715,0.9679678510471255,1.5813711134066848,0.8133000475488733,5.73210258157211,923
924,0.8474858648967548,1.3963241766340975,1.1963276574228012,0.8527291577815652,0.8891451424204175,5.182011999155637,924
925,0.8678564027278923,0.644858734940786,0.9860861396632304,0.9186501417080408,0.9354138548605656,4.352865273900515,925
926,0.8474858648967548,1.0585207482429286,1.3297682341358856,0.9186501417080408,1.242499879669392,5.396924868653002,926
927,0.7333463771421802,1.0707486024508723,0.9679678510471255,0.49371306331050674,0.9976018228569148,4.263377716807599,927
928,1.0786552526137378,0.644858734940786,0.7575418363196272,1.5813711134066848,0.8133000475488733,4.87572698482971,928
929,0.8403157580196393,1.3473389003100178,1.5789660261803067,0.8527291577815652,1.242499879669392,5.861849721960921,929
930,0.8403157580196393,1.3473389003100178,0.9228081684095735,0.49371306331050674,0.8133000475488733,4.417475937598611,930
931,0.7415558911378783,1.3473389003100178,0.9985549485209781,0.9186501417080408,0.8133000475488733,4.8193999292257885,931
932,0.7306498956473502,0.680951732957988,0.983018489191347,0.49371306331050674,1.2772224050135144,4.165555586120706,932
933,0.8474858648967548,1.0585207482429286,0.9069565302484662,0.9186501417080408,1.1591848381010954,4.8907981231972855,933
934,1.0068797947240453,0.6305537340108577,0.9533796846021256,0.49371306331050674,1.2772224050135144,4.36174868166105,934
935,1.0068797947240453,1.187099095268231,0.8966916327974446,0.9186501417080408,1.1591848381010954,5.168505502598858,935
936,0.9794024887283261,0.680951732957988,0.8792822880152499,0.9186501417080408,1.006275259671987,4.464561911081592,936
937,1.1029434388868302,1.3253157407797715,0.7741705870255384,1.714617047551628,0.8133000475488733,5.730346861792642,937
938,0.7306498956473502,0.6305537340108577,1.3297682341358856,0.9186501417080408,1.006275259671987,4.615897265174121,938
939,1.453785246075457,0.8786595995448542,1.0278258896034682,0.9186501417080408,1.2772224050135144,5.556143281945335,939
940,1.459483232684759,0.6305537340108577,0.8792822880152499,1.3044418738516306,1.006275259671987,5.280036388234484,940
941,0.8716670416259484,1.3145966911859206,0.942027421367467,1.328136074822748,1.242499879669392,5.698927108671477,941
942,0.91172812023612,0.680951732957988,0.8397123049364641,0.9186501417080408,0.8891451424204175,4.240187442259031,942
943,0.91172812023612,1.0585207482429286,1.2293940726192063,1.328136074822748,0.9976018228569148,5.5253808387779175,943
944,1.4652325026195927,1.0336291632459487,1.3297682341358856,0.49371306331050674,1.1591848381010954,5.481527801413028,944
945,0.8263362515770558,0.6305537340108577,0.7575418363196272,1.328136074822748,0.8133000475488733,4.3558679442791615,945
946,0.8952628959050906,0.644858734940786,0.7995199917810841,0.9186501417080408,1.1591848381010954,4.417476602436096,946
947,0.8529450192313964,1.3145966911859206,0.9679678510471255,1.3044418738516306,1.006275259671987,5.446226694988059,947
948,0.9054819396985982,0.8786595995448542,1.442660767893365,1.2239985401299938,1.242499879669392,5.6933007269362035,948
949,0.8529450192313964,1.3145966911859206,1.3355392346491888,2.8073345844820112,1.1591848381010954,7.469600367649612,949
950,1.0068797947240453,0.644858734940786,1.3297682341358856,1.2239985401299938,1.1591848381010954,5.364690142031806,950
951,0.8263362515770558,0.6305537340108577,0.9069565302484662,0.49371306331050674,1.006275259671987,3.8638348388188732,951
952,1.459483232684759,1.3145966911859206,0.9069565302484662,0.49371306331050674,0.8891451424204175,5.063894659850071,952
953,0.9138297299193745,1.185395247776377,0.7837277394877064,0.9186501417080408,1.006275259671987,4.807878118563486,953
954,0.8263362515770558,1.0707486024508723,0.9985549485209781,1.3044418738516306,0.9976018228569148,5.197683499257452,954
955,1.459483232684759,2.0192837802501344,0.9679678510471255,1.2239985401299938,1.2772224050135144,6.947955809125528,955
956,0.8952628959050906,1.3145966911859206,0.95916088366761,1.5813711134066848,0.8891451424204175,5.639536726585724,956
957,1.6665108674974691,0.680951732957988,1.0278258896034682,0.49371306331050674,0.9354138548605656,4.804415408229998,957
958,1.453785246075457,0.7390315309170211,0.8992357508663648,0.49371306331050674,0.9354138548605656,4.521179446029915,958
959,0.8678564027278923,0.680951732957988,0.8374960112727121,1.3044418738516306,0.9354138548605656,4.62615987567079,959
960,1.459483232684759,0.9723825417014988,0.9860861396632304,0.49371306331050674,1.006275259671987,4.917940237031982,960
961,0.8716670416259484,0.9723825417014988,1.0414082901549084,1.2239985401299938,1.1591848381010954,5.268641251713445,961
962,1.459483232684759,2.0192837802501344,0.9505156024819665,0.9186501417080408,0.9976018228569148,6.345534579981816,962
963,0.9054819396985982,0.8786595995448542,1.0278258896034682,0.8527291577815652,0.8133000475488733,4.47799663417736,963
964,0.9159412351297077,0.9723825417014988,1.0017227098518153,0.49371306331050674,0.9976018228569148,4.381361372850443,964
965,0.8263362515770558,1.185395247776377,1.0278258896034682,0.49371306331050674,1.006275259671987,4.539545711939395,965
966,0.9159412351297077,0.680951732957988,0.95916088366761,2.487093984006915,0.9354138548605656,5.9785616906227865,966
967,0.8952628959050906,0.8786595995448542,0.9860861396632304,0.8527291577815652,1.1591848381010954,4.771922630995836,967
968,1.0669260299149776,1.0336291632459487,0.9922805039872016,1.2474983049951964,0.8133000475488733,5.153634049692197,968
969,1.0068797947240453,0.7390315309170211,1.3963657634714146,0.8527291577815652,0.9976018228569148,4.992608069750961,969
970,1.3167986539728664,0.644858734940786,0.9922805039872016,0.9186501417080408,1.006275259671987,4.878863294280882,970
971,1.0669260299149776,1.0585207482429286,0.7575418363196272,1.2239985401299938,1.1591848381010954,5.266171992708623,971
972,1.459483232684759,0.7390315309170211,0.8792822880152499,1.5813711134066848,0.8133000475488733,5.472468212572588,972
973,0.91172812023612,1.3340296860184395,0.9505156024819665,0.8527291577815652,0.8891451424204175,4.938147708938509,973
974,0.7306498956473502,0.680951732957988,1.3297682341358856,1.3044418738516306,0.8133000475488733,4.859111784141728,974
975,1.0786552526137378,0.644858734940786,0.995407615147645,0.8527291577815652,1.1591848381010954,4.73083559858483,975
976,0.8622032507673212,0.644858734940786,0.7741705870255384,1.3044418738516306,0.8133000475488733,4.3989744941341495,976
977,0.8678564027278923,0.644858734940786,0.8397123049364641,0.49371306331050674,1.2772224050135144,4.123362910929163,977
978,0.8622032507673212,0.7390315309170211,0.9505156024819665,0.49371306331050674,0.9976018228569148,4.04306527033373,978
979,1.038734217647062,1.185395247776377,1.3963657634714146,0.8527291577815652,1.006275259671987,5.4794996463484065,979
980,0.8584756847933248,1.187099095268231,1.0278258896034682,0.49371306331050674,0.8133000475488733,4.380413780524404,980
981,0.8403157580196393,1.3253157407797715,1.1963276574228012,1.2474983049951964,0.8891451424204175,5.498602603637826,981
982,1.459483232684759,1.0585207482429286,1.1273105919010336,1.714617047551628,0.9354138548605656,6.295345475240915,982
983,0.8474858648967548,0.680951732957988,0.8159628348153366,0.9186501417080408,1.242499879669392,4.505550454047512,983
984,1.459483232684759,0.9723825417014988,0.7197425117548176,1.328136074822748,1.1591848381010954,5.638929199064918,984
985,0.8403157580196393,0.8786595995448542,1.3297682341358856,1.2239985401299938,0.8891451424204175,5.161887274250791,985
986,1.0068797947240453,1.0707486024508723,1.1273105919010336,1.5813711134066848,1.242499879669392,6.028809982152028,986
987,0.8263362515770558,1.3473389003100178,0.983018489191347,0.8527291577815652,0.8133000475488733,4.822722846408859,987
988,0.9054819396985982,0.6305537340108577,0.7837277394877064,1.2474983049951964,0.8891451424204175,4.456406860612776,988
989,0.8678564027278923,0.6305537340108577,0.7575418363196272,1.328136074822748,0.9976018228569148,4.58168987073804,989
990,0.8529450192313964,0.7390315309170211,0.9860861396632304,0.49371306331050674,1.2772224050135144,4.348998158135669,990
991,0.8263362515770558,2.0192837802501344,0.942027421367467,1.2239985401299938,0.8891451424204175,5.900791135745068,991
992,1.706851280063953,2.0192837802501344,1.2593125970044623,1.2239985401299938,1.1591848381010954,7.3686310355496385,992
993,1.706851280063953,0.680951732957988,0.8159628348153366,1.328136074822748,0.9976018228569148,5.529503745516941,993
994,0.9096363332414507,0.8786595995448542,0.9860861396632304,0.49371306331050674,0.8891451424204175,4.15724027818046,994
995,0.9096363332414507,1.0707486024508723,1.1607487459068544,1.2239985401299938,0.8891451424204175,5.254277364149589,995
996,0.8263362515770558,1.3963241766340975,1.2293940726192063,0.9186501417080408,1.1591848381010954,5.529889480639495,996
997,0.8622032507673212,1.3253157407797715,0.7575418363196272,1.328136074822748,1.006275259671987,5.279472162361454,997
998,0.9138297299193745,2.0192837802501344,1.1273105919010336,0.8527291577815652,0.9976018228569148,5.910755082709022,998
