,Head rarity score,Face rarity score,Body rarity score,Skin rarity score,Background rarity score,Trait count rarity score,Rarity score,Token Id
0,47.784946236559136,9.248699271592091,54.864197530864196,21.011820330969268,6.932917316692667,1.0,140.84258068667737,0
1,99.86516853932584,27.775,77.28695652173913,7.475189234650967,7.715277777777778,1.0,221.11759207349368,1
2,51.08045977011494,9.53648068669528,51.674418604651166,3.35522838807097,5.600504095778198,1.0,122.24709154531054,2
3,51.08045977011494,10.287037037037038,34.316602316602314,12.60709219858156,5.600504095778198,1.0,114.89169541811404,3
4,34.583657587548636,26.06451612903226,82.2962962962963,12.60709219858156,11.772185430463576,1.0,168.32374764192235,4
5,42.526315789473685,17.91935483870968,53.54216867469879,3.35522838807097,6.932917316692667,1.0,125.27598500764579,5
6,50.5,27.775,52.904761904761905,12.60709219858156,7.830837004405286,1.0,152.61769110774875,6
7,25.467048710601716,17.91935483870968,43.78325123152709,3.35522838807097,7.715277777777778,1.0,99.24016094668723,7
8,99.86516853932584,125.1830985915493,51.976608187134495,7.475189234650967,6.398848092152628,1.0,291.89891264481315,8
9,48.83516483516484,21.314148681055155,56.25316455696203,13.758513931888546,7.715277777777778,1.0,148.87626978284834,9
10,35.26984126984127,9.248699271592091,53.221556886227546,13.758513931888546,5.600504095778198,1.0,118.09911545532765,10
11,31.856630824372758,15.115646258503403,67.8473282442748,3.35522838807097,12.51830985915493,1.0,131.69314357437688,11
12,40.58447488584475,32.43795620437956,34.316602316602314,7.475189234650967,7.715277777777778,1.0,123.52950041925536,12
13,34.85490196078432,9.53648068669528,51.976608187134495,6.687735139202409,5.600504095778198,1.0,109.65623006959468,13
14,35.26984126984127,19.973033707865167,34.99212598425197,12.60709219858156,6.932917316692667,1.0,110.77501047723263,14
15,31.856630824372758,9.248699271592091,34.316602316602314,3.35522838807097,12.51830985915493,1.0,92.29547065979305,15
16,47.784946236559136,11.572916666666666,82.2962962962963,3.35522838807097,5.600504095778198,1.0,151.60989168337127,16
17,48.83516483516484,25.988304093567248,52.904761904761905,3.35522838807097,6.932917316692667,1.0,139.01637653825765,17
18,35.69477911646587,10.287037037037038,87.13725490196077,6.687735139202409,7.830837004405286,1.0,148.63764319907136,18
19,51.3757225433526,25.988304093567248,38.98245614035088,13.758513931888546,7.715277777777778,1.0,138.82027448693705,19
20,48.83516483516484,9.248699271592091,99.86516853932584,14.26645264847512,7.830837004405286,1.0,181.04632229896316,20
21,25.03661971830986,21.314148681055155,30.648275862068964,13.758513931888546,11.772185430463576,1.0,103.5297436237861,21
22,31.5177304964539,25.988304093567248,53.221556886227546,14.26645264847512,6.398848092152628,1.0,132.39289221687645,22
23,99.86516853932584,11.572916666666666,34.316602316602314,3.35522838807097,5.600504095778198,1.0,155.710420006444,23
24,30.231292517006807,10.287037037037038,46.05181347150259,3.35522838807097,10.18098510882016,1.0,101.10635652243755,24
25,32.20289855072464,9.248699271592091,37.344537815126046,202.0,6.398848092152628,1.0,288.1949837295954,25
26,42.526315789473685,9.248699271592091,51.674418604651166,7.475189234650967,7.715277777777778,1.0,119.63990067814568,26
27,42.526315789473685,9.248699271592091,77.28695652173913,25.837209302325583,7.715277777777778,1.0,163.61445866290828,27
28,24.896358543417367,26.06451612903226,34.99212598425197,21.011820330969268,7.830837004405286,1.0,115.79565799207614,28
29,99.86516853932584,99.86516853932584,47.784946236559136,12.158686730506156,6.932917316692667,1.0,267.6068873624096,29
30,34.85490196078432,9.248699271592091,51.976608187134495,12.60709219858156,7.830837004405286,1.0,117.51813862249774,30
31,30.231292517006807,46.53403141361257,39.15418502202643,12.158686730506156,11.772185430463576,1.0,140.85038111361553,31
32,25.467048710601716,37.344537815126046,37.50210970464135,3.35522838807097,12.51830985915493,1.0,117.18723447759501,32
33,35.983805668016196,37.344537815126046,37.344537815126046,14.26645264847512,10.18098510882016,1.0,136.12031905556358,33
34,24.896358543417367,9.53648068669528,43.78325123152709,7.475189234650967,6.398848092152628,1.0,93.09012778844334,34
35,51.08045977011494,33.04089219330855,52.904761904761905,21.011820330969268,6.932917316692667,1.0,165.97085151584736,35
36,31.5177304964539,11.572916666666666,42.32380952380952,7.475189234650967,7.830837004405286,1.0,101.72048292598635,36
37,24.896358543417367,15.115646258503403,53.221556886227546,99.86516853932584,6.932917316692667,1.0,201.03164754416684,37
38,48.83516483516484,9.53648068669528,46.05181347150259,3.35522838807097,7.830837004405286,1.0,116.60952438583897,38
39,35.983805668016196,33.53962264150943,46.05181347150259,12.158686730506156,6.932917316692667,1.0,135.66684582822705,39
40,24.896358543417367,10.287037037037038,30.648275862068964,7.475189234650967,11.772185430463576,1.0,86.07904610763792,40
41,35.26984126984127,37.344537815126046,42.32380952380952,3.35522838807097,7.715277777777778,1.0,127.00869477462558,41
42,32.20289855072464,10.287037037037038,48.83516483516484,3.35522838807097,5.600504095778198,1.0,101.28083290677567,42
43,51.08045977011494,20.863849765258216,54.864197530864196,12.60709219858156,5.600504095778198,1.0,146.01610336059713,43
44,34.85490196078432,32.43795620437956,50.21468926553672,12.60709219858156,7.715277777777778,1.0,138.82991740705992,44
45,45.3469387755102,19.973033707865167,34.99212598425197,13.758513931888546,5.600504095778198,1.0,120.67111649529407,45
46,51.3757225433526,9.248699271592091,34.99212598425197,3.35522838807097,7.715277777777778,1.0,107.68705396504541,46
47,34.85490196078432,9.53648068669528,46.05181347150259,7.475189234650967,5.600504095778198,1.0,104.51888944941135,47
48,42.73076923076923,33.04089219330855,33.16417910447761,7.475189234650967,6.932917316692667,1.0,124.34394707989904,48
49,34.85490196078432,21.314148681055155,48.83516483516484,3.35522838807097,6.398848092152628,1.0,115.75829195722793,49
50,32.7970479704797,125.1830985915493,34.316602316602314,14.26645264847512,6.398848092152628,1.0,213.96204961925906,50
51,32.20289855072464,37.344537815126046,46.05181347150259,3.35522838807097,5.600504095778198,1.0,125.55498232120244,51
52,32.43795620437956,15.115646258503403,99.86516853932584,14.26645264847512,5.600504095778198,1.0,168.28572774646213,52
53,34.85490196078432,20.863849765258216,167.69811320754715,7.475189234650967,10.18098510882016,1.0,242.07303927706081,53
54,40.58447488584475,132.65671641791045,44.0,7.475189234650967,6.932917316692667,1.0,232.64929785509884,54
55,50.5,10.287037037037038,30.648275862068964,3.35522838807097,6.932917316692667,1.0,102.72345860386964,55
56,35.26984126984127,17.91935483870968,51.976608187134495,12.158686730506156,5.600504095778198,1.0,123.9249951219698,56
57,99.86516853932584,9.248699271592091,51.674418604651166,14.26645264847512,11.772185430463576,1.0,187.82692449450775,57
58,31.5177304964539,19.973033707865167,99.86516853932584,3.35522838807097,5.600504095778198,1.0,161.31166522749407,58
59,31.076923076923077,15.115646258503403,30.648275862068964,25.837209302325583,6.398848092152628,1.0,110.07690259197366,59
60,34.583657587548636,27.775,44.663316582914575,21.011820330969268,10.18098510882016,1.0,139.21477961025263,60
61,25.467048710601716,9.248699271592091,35.552,3.35522838807097,6.932917316692667,1.0,81.55589368695745,61
62,25.03661971830986,132.65671641791045,47.784946236559136,25.837209302325583,6.932917316692667,1.0,239.2484089917977,62
63,51.3757225433526,37.344537815126046,42.32380952380952,12.158686730506156,6.932917316692667,1.0,151.135673929487,63
64,34.85490196078432,10.287037037037038,30.648275862068964,13.758513931888546,7.830837004405286,1.0,98.37956579618414,64
65,45.3469387755102,10.287037037037038,54.864197530864196,3.35522838807097,7.830837004405286,1.0,122.68423873588769,65
66,35.26984126984127,20.863849765258216,48.83516483516484,3.35522838807097,5.600504095778198,1.0,114.92458835411348,66
67,99.86516853932584,25.988304093567248,67.8473282442748,13.758513931888546,7.715277777777778,1.0,216.17459258683422,67
68,35.552,11.572916666666666,52.59171597633136,3.35522838807097,6.398848092152628,1.0,110.47070912322162,68
69,35.552,33.53962264150943,53.54216867469879,6.687735139202409,5.600504095778198,1.0,135.92203055118884,69
70,32.20289855072464,9.53648068669528,36.130081300813,6.687735139202409,5.600504095778198,1.0,91.15769977321351,70
71,99.86516853932584,9.248699271592091,51.674418604651166,3.35522838807097,10.18098510882016,1.0,175.3244999124602,71
72,98.75555555555556,25.988304093567248,34.99212598425197,3.35522838807097,7.830837004405286,1.0,171.92205102585103,72
73,34.85490196078432,9.53648068669528,39.15418502202643,3.35522838807097,6.398848092152628,1.0,94.29964414972963,73
74,98.75555555555556,21.314148681055155,39.15418502202643,6.687735139202409,6.932917316692667,1.0,173.84454171453223,74
75,99.86516853932584,37.344537815126046,51.976608187134495,7.475189234650967,6.398848092152628,1.0,204.06035186839,75
76,25.03661971830986,17.91935483870968,77.28695652173913,6.687735139202409,10.18098510882016,1.0,138.11165132678124,76
77,31.076923076923077,11.572916666666666,47.784946236559136,404.0,6.398848092152628,1.0,501.8336340723015,77
78,98.75555555555556,46.53403141361257,43.78325123152709,99.86516853932584,5.600504095778198,1.0,295.53851083579923,78
79,34.583657587548636,27.775,49.37777777777778,6.687735139202409,5.600504095778198,1.0,125.02467460030701,79
80,35.26984126984127,11.572916666666666,43.78325123152709,202.0,6.932917316692667,1.0,300.5589264847277,80
81,35.552,10.287037037037038,37.344537815126046,25.837209302325583,5.600504095778198,1.0,115.62128825026686,81
82,31.856630824372758,9.53648068669528,53.221556886227546,3.35522838807097,6.932917316692667,1.0,105.90281410205922,82
83,25.467048710601716,20.863849765258216,30.648275862068964,3.35522838807097,7.830837004405286,1.0,89.16523973040515,83
84,35.983805668016196,20.863849765258216,30.648275862068964,12.60709219858156,6.398848092152628,1.0,107.50187158607757,84
85,404.0,17.91935483870968,51.674418604651166,3.35522838807097,5.600504095778198,1.0,483.5495059272101,85
86,31.076923076923077,10.287037037037038,49.37777777777778,21.011820330969268,10.18098510882016,1.0,122.93454333152732,86
87,98.75555555555556,10.287037037037038,34.316602316602314,3.35522838807097,12.51830985915493,1.0,160.2327331564208,87
88,33.04089219330855,19.973033707865167,33.16417910447761,7.475189234650967,7.715277777777778,1.0,102.36857201808007,88
89,197.51111111111112,10.287037037037038,39.15418502202643,7.475189234650967,7.715277777777778,1.0,263.14280018260337,89
90,47.784946236559136,32.43795620437956,113.94871794871796,12.60709219858156,7.715277777777778,1.0,215.493990366016,90
91,98.75555555555556,11.572916666666666,143.35483870967744,7.475189234650967,6.932917316692667,1.0,269.0914174832433,91
92,32.20289855072464,17.91935483870968,43.78325123152709,12.158686730506156,7.830837004405286,1.0,114.89502835587285,92
93,25.03661971830986,37.344537815126046,126.97142857142858,6.687735139202409,6.398848092152628,1.0,203.43916933621952,93
94,35.983805668016196,9.53648068669528,99.86516853932584,7.475189234650967,7.715277777777778,1.0,161.57592190646605,94
95,31.856630824372758,11.572916666666666,37.50210970464135,6.687735139202409,6.398848092152628,1.0,95.0182404270358,95
96,167.69811320754715,17.91935483870968,202.0,12.60709219858156,10.18098510882016,1.0,411.4055453536585,96
97,25.467048710601716,19.973033707865167,72.260162601626,12.60709219858156,12.51830985915493,1.0,143.8256470778294,97
98,35.69477911646587,9.248699271592091,53.221556886227546,3.35522838807097,10.18098510882016,1.0,112.70124877117664,98
99,51.08045977011494,27.775,37.50210970464135,7.475189234650967,7.830837004405286,1.0,132.66359571381255,99
100,99.86516853932584,34.316602316602314,51.976608187134495,6.687735139202409,7.715277777777778,1.0,201.56139196004284,100
101,40.58447488584475,17.91935483870968,34.316602316602314,13.758513931888546,11.772185430463576,1.0,119.35113140350887,101
102,35.83870967741936,20.863849765258216,52.904761904761905,12.60709219858156,6.932917316692667,1.0,130.14733086271372,102
103,35.552,9.53648068669528,99.86516853932584,3.35522838807097,12.51830985915493,1.0,161.82718747324702,103
104,33.04089219330855,132.65671641791045,37.344537815126046,7.475189234650967,5.600504095778198,1.0,217.1178397567742,104
105,30.231292517006807,9.248699271592091,77.28695652173913,12.60709219858156,6.932917316692667,1.0,137.30695782561227,105
106,34.85490196078432,10.287037037037038,49.37777777777778,3.35522838807097,7.715277777777778,1.0,106.59022294144788,106
107,25.03661971830986,9.248699271592091,46.05181347150259,3.35522838807097,6.398848092152628,1.0,91.09120894162814,107
108,48.83516483516484,27.775,33.16417910447761,6.687735139202409,6.398848092152628,1.0,123.86092717099748,108
109,35.983805668016196,11.572916666666666,54.864197530864196,202.0,10.18098510882016,1.0,315.6019049743672,109
110,99.86516853932584,33.53962264150943,46.05181347150259,3.35522838807097,7.830837004405286,1.0,191.6426700448141,110
111,35.552,25.988304093567248,35.552,6.687735139202409,5.600504095778198,1.0,110.38054332854783,111
112,48.83516483516484,26.06451612903226,99.86516853932584,12.158686730506156,12.51830985915493,1.0,200.44184609318404,112
113,51.08045977011494,9.53648068669528,53.221556886227546,6.687735139202409,5.600504095778198,1.0,127.12673657801837,113
114,47.784946236559136,27.775,82.2962962962963,12.60709219858156,10.18098510882016,1.0,181.64431984025717,114
115,32.43795620437956,132.65671641791045,116.94736842105263,12.60709219858156,7.830837004405286,1.0,303.47997024632946,115
116,34.583657587548636,15.115646258503403,49.37777777777778,6.687735139202409,5.600504095778198,1.0,112.36532085881042,116
117,51.3757225433526,11.572916666666666,116.94736842105263,21.011820330969268,6.932917316692667,1.0,208.84074527873383,117
118,25.03661971830986,404.0,46.05181347150259,3.35522838807097,6.932917316692667,1.0,486.37657889457614,118
119,35.26984126984127,15.115646258503403,49.37777777777778,3.35522838807097,5.600504095778198,1.0,109.71899778997162,119
120,25.03661971830986,32.43795620437956,99.86516853932584,21.011820330969268,11.772185430463576,1.0,191.1237502234481,120
121,99.86516853932584,11.572916666666666,52.59171597633136,13.758513931888546,12.51830985915493,1.0,191.30662497336735,121
122,31.076923076923077,27.775,47.784946236559136,14.26645264847512,7.830837004405286,1.0,129.73415896636263,122
123,32.43795620437956,33.53962264150943,37.344537815126046,7.475189234650967,12.51830985915493,1.0,124.31561575482093,123
124,35.26984126984127,21.314148681055155,67.8473282442748,7.475189234650967,7.715277777777778,1.0,140.62178520759997,124
125,32.7970479704797,21.314148681055155,35.552,3.35522838807097,6.398848092152628,1.0,100.41727313175846,125
126,34.583657587548636,19.973033707865167,50.21468926553672,12.158686730506156,7.715277777777778,1.0,125.64534506923445,126
127,31.856630824372758,10.287037037037038,99.86516853932584,12.60709219858156,10.18098510882016,1.0,165.79691370813734,127
128,34.85490196078432,11.572916666666666,99.86516853932584,25.837209302325583,7.830837004405286,1.0,180.96103347350768,128
129,31.856630824372758,17.91935483870968,404.0,3.35522838807097,7.830837004405286,1.0,465.96205105555873,129
130,50.5,9.53648068669528,51.674418604651166,21.011820330969268,5.600504095778198,1.0,139.3232237180939,130
131,47.784946236559136,11.572916666666666,30.648275862068964,3.35522838807097,7.715277777777778,1.0,102.0766449311435,131
132,42.526315789473685,19.973033707865167,30.648275862068964,21.011820330969268,7.830837004405286,1.0,122.99028269478237,132
133,35.69477911646587,17.91935483870968,36.130081300813,3.35522838807097,10.18098510882016,1.0,104.28042875287969,133
134,48.83516483516484,15.115646258503403,44.0,6.687735139202409,7.715277777777778,1.0,123.35382401064842,134
135,50.5,15.115646258503403,39.15418502202643,6.687735139202409,12.51830985915493,1.0,124.97587627888717,135
136,42.526315789473685,9.53648068669528,99.86516853932584,13.758513931888546,7.715277777777778,1.0,174.40175672516114,136
137,35.26984126984127,46.53403141361257,54.864197530864196,14.26645264847512,11.772185430463576,1.0,163.70670829325672,137
138,30.231292517006807,10.287037037037038,30.648275862068964,12.60709219858156,11.772185430463576,1.0,96.54588304515795,138
139,35.83870967741936,9.248699271592091,37.344537815126046,3.35522838807097,7.715277777777778,1.0,94.50245292998623,139
140,75.96581196581197,46.53403141361257,99.86516853932584,13.758513931888546,12.51830985915493,1.0,249.64183570979387,140
141,40.58447488584475,9.53648068669528,57.71428571428571,3.35522838807097,12.51830985915493,1.0,124.70877953405163,141
142,75.96581196581197,52.59171597633136,46.05181347150259,13.758513931888546,5.600504095778198,1.0,194.96835944131269,142
143,153.24137931034483,9.248699271592091,53.54216867469879,12.158686730506156,7.830837004405286,1.0,237.02177099154716,143
144,34.85490196078432,33.53962264150943,50.21468926553672,14.26645264847512,6.398848092152628,1.0,140.27451460845822,144
145,40.58447488584475,17.91935483870968,44.0,7.475189234650967,5.600504095778198,1.0,116.5795230549836,145
146,30.231292517006807,15.115646258503403,30.648275862068964,12.60709219858156,12.51830985915493,1.0,102.12061669531566,146
147,31.076923076923077,21.314148681055155,52.59171597633136,21.011820330969268,11.772185430463576,1.0,138.76679349574243,147
148,51.3757225433526,125.1830985915493,49.37777777777778,6.687735139202409,5.600504095778198,1.0,239.2248381476603,148
149,31.856630824372758,21.314148681055155,48.83516483516484,3.35522838807097,6.398848092152628,1.0,112.76002082081635,149
150,99.86516853932584,9.53648068669528,38.98245614035088,3.35522838807097,10.18098510882016,1.0,162.92031886326313,150
151,34.583657587548636,11.572916666666666,44.663316582914575,7.475189234650967,6.932917316692667,1.0,106.22799738847351,151
152,32.43795620437956,34.316602316602314,48.568306010928964,12.158686730506156,6.398848092152628,1.0,134.88039935456962,152
153,24.896358543417367,20.863849765258216,35.552,3.35522838807097,12.51830985915493,1.0,98.18574655590149,153
154,99.86516853932584,19.973033707865167,38.98245614035088,3.35522838807097,7.715277777777778,1.0,170.8911645533906,154
155,101.0,9.53648068669528,99.86516853932584,13.758513931888546,5.600504095778198,1.0,230.76066725368787,155
156,45.3469387755102,9.248699271592091,35.552,6.687735139202409,6.398848092152628,1.0,104.23422127845734,156
157,24.896358543417367,11.572916666666666,30.648275862068964,14.26645264847512,6.932917316692667,1.0,89.31692103732078,157
158,32.7970479704797,17.91935483870968,39.15418502202643,6.687735139202409,5.600504095778198,1.0,103.15882706619641,158
159,24.896358543417367,11.572916666666666,113.94871794871796,7.475189234650967,5.600504095778198,1.0,164.49368648923118,159
160,30.231292517006807,15.115646258503403,48.568306010928964,7.475189234650967,7.715277777777778,1.0,110.10571179886792,160
161,32.43795620437956,19.973033707865167,48.568306010928964,202.0,6.932917316692667,1.0,310.9122132398664,161
162,25.467048710601716,34.316602316602314,67.8473282442748,6.687735139202409,5.600504095778198,1.0,140.91921850645946,162
163,34.85490196078432,10.287037037037038,48.83516483516484,3.35522838807097,10.18098510882016,1.0,108.51331732987731,163
164,99.86516853932584,9.53648068669528,34.316602316602314,21.011820330969268,7.830837004405286,1.0,173.56090887799797,164
165,34.583657587548636,33.04089219330855,34.99212598425197,3.35522838807097,7.715277777777778,1.0,114.6871819309579,165
166,35.69477911646587,20.863849765258216,47.784946236559136,13.758513931888546,5.600504095778198,1.0,124.70259314594995,166
167,30.231292517006807,33.53962264150943,50.21468926553672,3.35522838807097,6.932917316692667,1.0,125.27375012881659,167
168,33.04089219330855,9.248699271592091,77.28695652173913,7.475189234650967,5.600504095778198,1.0,133.65224131706893,168
169,32.43795620437956,20.863849765258216,37.344537815126046,13.758513931888546,5.600504095778198,1.0,111.00536181243055,169
170,35.26984126984127,10.287037037037038,54.864197530864196,13.758513931888546,10.18098510882016,1.0,125.36057487845122,170
171,33.04089219330855,11.572916666666666,48.83516483516484,3.35522838807097,6.932917316692667,1.0,104.73711939990369,171
172,167.69811320754715,25.988304093567248,99.86516853932584,12.158686730506156,12.51830985915493,1.0,319.2285824301013,172
173,24.896358543417367,10.287037037037038,202.0,3.35522838807097,7.830837004405286,1.0,249.36946097293065,173
174,31.5177304964539,33.04089219330855,48.568306010928964,3.35522838807097,7.830837004405286,1.0,125.31299409316766,174
175,31.5177304964539,9.248699271592091,51.674418604651166,21.011820330969268,5.600504095778198,1.0,120.05317279944462,175
176,99.86516853932584,20.863849765258216,52.59171597633136,3.35522838807097,7.715277777777778,1.0,185.39124044676416,176
177,99.86516853932584,9.53648068669528,44.0,6.687735139202409,6.398848092152628,1.0,167.48823245737614,177
178,31.076923076923077,25.988304093567248,77.28695652173913,3.35522838807097,6.398848092152628,1.0,145.10626017245306,178
179,35.26984126984127,11.572916666666666,63.0354609929078,3.35522838807097,6.398848092152628,1.0,120.63229540963934,179
180,32.43795620437956,20.863849765258216,34.99212598425197,3.35522838807097,11.772185430463576,1.0,104.42134577242429,180
181,31.5177304964539,17.91935483870968,143.35483870967744,25.837209302325583,6.932917316692667,1.0,226.56205066385928,181
182,167.69811320754715,27.775,72.260162601626,21.011820330969268,10.18098510882016,1.0,299.9260812489626,182
183,202.0,9.248699271592091,33.16417910447761,7.475189234650967,7.715277777777778,1.0,260.6033453884985,183
184,35.552,37.344537815126046,52.59171597633136,3.35522838807097,6.398848092152628,1.0,136.242330271681,184
185,99.86516853932584,32.43795620437956,143.35483870967744,12.60709219858156,6.398848092152628,1.0,295.66390374411696,185
186,35.552,11.572916666666666,82.2962962962963,3.35522838807097,7.830837004405286,1.0,141.6072783554392,186
187,24.896358543417367,99.86516853932584,36.130081300813,99.86516853932584,5.600504095778198,1.0,267.3572810186603,187
188,31.076923076923077,33.53962264150943,44.663316582914575,6.687735139202409,5.600504095778198,1.0,122.56810153632767,188
189,35.69477911646587,9.248699271592091,34.316602316602314,7.475189234650967,6.398848092152628,1.0,94.13411803146387,189
190,51.08045977011494,33.04089219330855,50.21468926553672,6.687735139202409,6.398848092152628,1.0,148.42262446031523,190
191,99.86516853932584,9.53648068669528,116.94736842105263,6.687735139202409,5.600504095778198,1.0,239.63725688205437,191
192,31.076923076923077,27.775,44.663316582914575,7.475189234650967,5.600504095778198,1.0,117.59093299026681,192
193,31.5177304964539,9.53648068669528,48.83516483516484,7.475189234650967,10.18098510882016,1.0,108.54555036178513,193
194,31.856630824372758,21.314148681055155,67.8473282442748,13.758513931888546,6.398848092152628,1.0,142.1754697737439,194
195,48.83516483516484,25.988304093567248,42.32380952380952,6.687735139202409,7.830837004405286,1.0,132.66585059614928,195
196,30.231292517006807,9.248699271592091,36.130081300813,21.011820330969268,6.932917316692667,1.0,104.55481073707384,196
197,24.896358543417367,25.988304093567248,39.15418502202643,7.475189234650967,7.715277777777778,1.0,106.2293146714398,197
198,30.231292517006807,11.572916666666666,51.976608187134495,12.60709219858156,10.18098510882016,1.0,117.56889467820969,198
199,45.3469387755102,25.988304093567248,44.0,6.687735139202409,7.830837004405286,1.0,130.85381501268515,199
200,51.3757225433526,11.572916666666666,99.86516853932584,6.687735139202409,10.18098510882016,1.0,180.68252799736766,200
201,35.26984126984127,33.04089219330855,46.05181347150259,3.35522838807097,10.18098510882016,1.0,128.89876043154354,201
202,48.83516483516484,11.572916666666666,51.976608187134495,6.687735139202409,7.830837004405286,1.0,127.90326183257369,202
203,101.0,9.248699271592091,42.32380952380952,3.35522838807097,5.600504095778198,1.0,162.52824127925078,203
204,31.856630824372758,9.53648068669528,56.25316455696203,13.758513931888546,12.51830985915493,1.0,124.92309985907353,204
205,32.7970479704797,26.06451612903226,46.05181347150259,3.35522838807097,5.600504095778198,1.0,114.86911005486373,205
206,45.3469387755102,11.572916666666666,48.83516483516484,6.687735139202409,6.398848092152628,1.0,119.84160350869675,206
207,31.5177304964539,27.775,56.25316455696203,12.158686730506156,7.715277777777778,1.0,136.41985956169987,207
208,98.75555555555556,9.248699271592091,49.37777777777778,6.687735139202409,6.398848092152628,1.0,171.46861583628046,208
209,45.3469387755102,20.863849765258216,143.35483870967744,7.475189234650967,10.18098510882016,1.0,228.22180159391698,209
210,50.5,15.115646258503403,42.32380952380952,3.35522838807097,5.600504095778198,1.0,117.8951882661621,210
211,25.467048710601716,11.572916666666666,53.221556886227546,14.26645264847512,7.830837004405286,1.0,113.35881191637633,211
212,32.43795620437956,26.06451612903226,37.50210970464135,6.687735139202409,6.398848092152628,1.0,110.09116526940821,212
213,99.86516853932584,11.572916666666666,37.344537815126046,12.158686730506156,6.398848092152628,1.0,168.34015784377735,213
214,31.856630824372758,19.973033707865167,54.864197530864196,3.35522838807097,10.18098510882016,1.0,121.23007555999325,214
215,42.526315789473685,34.316602316602314,49.37777777777778,12.158686730506156,10.18098510882016,1.0,149.5603677231801,215
216,167.69811320754715,11.572916666666666,36.130081300813,3.35522838807097,6.932917316692667,1.0,226.68925687979046,216
217,35.83870967741936,404.0,35.552,3.35522838807097,11.772185430463576,1.0,491.518123495954,217
218,51.08045977011494,10.287037037037038,33.16417910447761,7.475189234650967,5.600504095778198,1.0,108.60736924205875,218
219,32.7970479704797,10.287037037037038,33.16417910447761,3.35522838807097,5.600504095778198,1.0,86.20399659584352,219
220,101.0,11.572916666666666,52.59171597633136,3.35522838807097,10.18098510882016,1.0,179.70084613988914,220
221,34.85490196078432,32.43795620437956,47.784946236559136,14.26645264847512,6.932917316692667,1.0,137.27717436689082,221
222,45.3469387755102,34.316602316602314,63.0354609929078,3.35522838807097,12.51830985915493,1.0,159.5725403322462,222
223,24.896358543417367,11.572916666666666,56.25316455696203,25.837209302325583,11.772185430463576,1.0,131.33183449983522,223
224,24.896358543417367,11.572916666666666,63.0354609929078,3.35522838807097,7.715277777777778,1.0,111.57524236884058,224
225,34.583657587548636,10.287037037037038,30.648275862068964,3.35522838807097,6.932917316692667,1.0,86.80711619141827,225
226,99.86516853932584,33.53962264150943,77.28695652173913,12.60709219858156,12.51830985915493,1.0,236.81714976031088,226
227,35.26984126984127,33.53962264150943,116.94736842105263,3.35522838807097,7.830837004405286,1.0,197.9428977248796,227
228,34.583657587548636,9.53648068669528,87.13725490196077,6.687735139202409,5.600504095778198,1.0,144.5456324111853,228
229,32.20289855072464,9.53648068669528,37.344537815126046,3.35522838807097,10.18098510882016,1.0,93.62013054943708,229
230,32.7970479704797,21.314148681055155,54.864197530864196,25.837209302325583,7.715277777777778,1.0,143.5278812625024,230
231,34.85490196078432,9.53648068669528,33.16417910447761,6.687735139202409,5.600504095778198,1.0,90.84380098693781,231
232,34.85490196078432,32.43795620437956,46.05181347150259,3.35522838807097,6.932917316692667,1.0,124.63281734143011,232
233,45.3469387755102,9.53648068669528,43.78325123152709,13.758513931888546,6.932917316692667,1.0,120.35810194231378,233
234,99.86516853932584,15.115646258503403,52.904761904761905,3.35522838807097,5.600504095778198,1.0,177.84130918644033,234
235,35.983805668016196,19.973033707865167,101.0,12.158686730506156,7.715277777777778,1.0,177.8308038841653,235
236,35.983805668016196,9.248699271592091,63.0354609929078,12.60709219858156,7.830837004405286,1.0,129.70589513550294,236
237,32.7970479704797,132.65671641791045,99.86516853932584,14.26645264847512,5.600504095778198,1.0,286.18588967196933,237
238,34.85490196078432,19.973033707865167,37.344537815126046,6.687735139202409,6.932917316692667,1.0,106.7931259396706,238
239,42.73076923076923,9.248699271592091,56.25316455696203,25.837209302325583,6.932917316692667,1.0,142.00275967834162,239
240,99.86516853932584,9.248699271592091,44.663316582914575,7.475189234650967,6.398848092152628,1.0,168.6512217206361,240
241,31.5177304964539,10.287037037037038,46.05181347150259,3.35522838807097,6.932917316692667,1.0,99.14472670975717,241
242,35.83870967741936,27.775,43.78325123152709,14.26645264847512,12.51830985915493,1.0,135.18172341657652,242
243,25.467048710601716,11.572916666666666,99.86516853932584,6.687735139202409,10.18098510882016,1.0,154.77385416461678,243
244,50.5,125.1830985915493,67.8473282442748,3.35522838807097,5.600504095778198,1.0,253.4861593196733,244
245,45.3469387755102,9.53648068669528,87.13725490196077,3.35522838807097,11.772185430463576,1.0,158.1480881827008,245
246,34.85490196078432,33.04089219330855,99.86516853932584,12.60709219858156,5.600504095778198,1.0,186.9685589877785,246
247,51.3757225433526,11.572916666666666,63.0354609929078,6.687735139202409,6.398848092152628,1.0,140.0706834342821,247
248,31.856630824372758,32.43795620437956,39.15418502202643,3.35522838807097,6.932917316692667,1.0,114.7369177555424,248
249,45.3469387755102,9.53648068669528,50.21468926553672,3.35522838807097,5.600504095778198,1.0,115.05384121159136,249
250,25.03661971830986,10.287037037037038,46.05181347150259,6.687735139202409,6.398848092152628,1.0,95.46205345820454,250
251,32.43795620437956,15.115646258503403,46.05181347150259,7.475189234650967,11.772185430463576,1.0,113.8527905995001,251
252,45.3469387755102,10.287037037037038,30.648275862068964,6.687735139202409,7.715277777777778,1.0,101.68526459159638,252
253,31.076923076923077,15.115646258503403,34.99212598425197,3.35522838807097,6.398848092152628,1.0,91.93877179990206,253
254,40.58447488584475,21.314148681055155,63.0354609929078,3.35522838807097,10.18098510882016,1.0,139.47029805669882,254
255,25.467048710601716,11.572916666666666,54.864197530864196,3.35522838807097,10.18098510882016,1.0,106.4403764050237,255
256,32.20289855072464,27.775,44.0,3.35522838807097,7.715277777777778,1.0,116.04840471657337,256
257,34.583657587548636,11.572916666666666,46.05181347150259,6.687735139202409,5.600504095778198,1.0,105.49662696069849,257
258,40.58447488584475,20.863849765258216,50.21468926553672,13.758513931888546,5.600504095778198,1.0,132.02203194430643,258
259,99.86516853932584,9.53648068669528,38.98245614035088,25.837209302325583,10.18098510882016,1.0,185.40229977751775,259
260,35.26984126984127,10.287037037037038,37.344537815126046,3.35522838807097,7.830837004405286,1.0,95.0874815144806,260
261,24.896358543417367,21.314148681055155,52.904761904761905,6.687735139202409,7.830837004405286,1.0,114.63384127284212,261
262,32.43795620437956,9.248699271592091,34.316602316602314,13.758513931888546,6.398848092152628,1.0,97.16061981661514,262
263,31.076923076923077,9.248699271592091,99.86516853932584,13.758513931888546,5.600504095778198,1.0,160.54980891550775,263
264,101.0,15.115646258503403,99.86516853932584,7.475189234650967,7.830837004405286,1.0,232.28684103688548,264
265,51.08045977011494,32.43795620437956,44.663316582914575,25.837209302325583,11.772185430463576,1.0,166.79112729019823,265
266,35.26984126984127,34.316602316602314,38.98245614035088,6.687735139202409,6.932917316692667,1.0,123.18955218268952,266
267,25.467048710601716,9.248699271592091,30.648275862068964,12.60709219858156,10.18098510882016,1.0,89.15210115166448,267
268,31.856630824372758,34.316602316602314,67.8473282442748,6.687735139202409,6.932917316692667,1.0,148.64121384114497,268
269,33.04089219330855,10.287037037037038,34.316602316602314,6.687735139202409,7.715277777777778,1.0,93.04754446392808,269
270,35.983805668016196,9.53648068669528,46.05181347150259,6.687735139202409,7.830837004405286,1.0,107.09067196982176,270
271,32.20289855072464,33.04089219330855,53.221556886227546,12.158686730506156,5.600504095778198,1.0,137.2245384565451,271
272,34.85490196078432,32.43795620437956,38.98245614035088,14.26645264847512,6.932917316692667,1.0,128.47468427068253,272
273,34.583657587548636,11.572916666666666,53.54216867469879,3.35522838807097,10.18098510882016,1.0,114.23495642580522,273
274,30.231292517006807,34.316602316602314,53.221556886227546,3.35522838807097,5.600504095778198,1.0,127.72518420368583,274
275,24.896358543417367,17.91935483870968,37.344537815126046,7.475189234650967,7.715277777777778,1.0,96.35071820968183,275
276,32.20289855072464,27.775,35.552,12.158686730506156,7.715277777777778,1.0,116.40386305900857,276
277,35.983805668016196,15.115646258503403,54.864197530864196,12.60709219858156,6.932917316692667,1.0,126.50365897265802,277
278,31.5177304964539,26.06451612903226,63.0354609929078,14.26645264847512,5.600504095778198,1.0,141.4846643626473,278
279,32.43795620437956,9.248699271592091,42.32380952380952,3.35522838807097,6.932917316692667,1.0,95.2986107045448,279
280,99.86516853932584,34.316602316602314,53.221556886227546,13.758513931888546,11.772185430463576,1.0,213.93402710450783,280
281,35.83870967741936,9.248699271592091,63.0354609929078,12.158686730506156,5.600504095778198,1.0,126.8820607682036,281
282,47.784946236559136,9.53648068669528,37.344537815126046,3.35522838807097,6.932917316692667,1.0,105.9541104431441,282
283,35.26984126984127,10.287037037037038,34.316602316602314,3.35522838807097,5.600504095778198,1.0,89.82921310732978,283
284,30.231292517006807,17.91935483870968,34.316602316602314,7.475189234650967,12.51830985915493,1.0,103.4607487661247,284
285,35.983805668016196,19.973033707865167,51.674418604651166,12.60709219858156,10.18098510882016,1.0,131.41933528793425,285
286,35.69477911646587,46.53403141361257,46.05181347150259,14.26645264847512,7.830837004405286,1.0,151.37791365446142,286
287,48.83516483516484,33.53962264150943,153.24137931034483,6.687735139202409,7.715277777777778,1.0,251.01917970399927,287
288,24.896358543417367,20.863849765258216,51.674418604651166,7.475189234650967,6.398848092152628,1.0,112.30866424013035,288
289,98.75555555555556,20.863849765258216,63.0354609929078,14.26645264847512,5.600504095778198,1.0,203.5218230579749,289
290,25.03661971830986,11.572916666666666,37.50210970464135,12.60709219858156,7.715277777777778,1.0,95.4340160659772,290
291,32.43795620437956,125.1830985915493,44.663316582914575,6.687735139202409,7.830837004405286,1.0,217.8029435224511,291
292,101.0,33.53962264150943,44.663316582914575,6.687735139202409,6.932917316692667,1.0,193.82359168031908,292
293,31.856630824372758,11.572916666666666,77.28695652173913,3.35522838807097,5.600504095778198,1.0,130.67223649662773,293
294,24.896358543417367,9.53648068669528,33.16417910447761,3.35522838807097,11.772185430463576,1.0,83.72443215312481,294
295,35.26984126984127,9.53648068669528,113.94871794871796,3.35522838807097,6.932917316692667,1.0,170.04318561001816,295
296,35.69477911646587,9.248699271592091,56.25316455696203,6.687735139202409,6.398848092152628,1.0,115.28322617637502,296
297,98.75555555555556,46.53403141361257,37.344537815126046,14.26645264847512,7.715277777777778,1.0,205.61585521054704,297
298,35.552,10.287037037037038,113.94871794871796,404.0,7.715277777777778,1.0,572.5030327635328,298
299,51.3757225433526,10.287037037037038,35.552,12.60709219858156,7.830837004405286,1.0,118.65268878337648,299
300,34.85490196078432,9.53648068669528,43.78325123152709,3.35522838807097,10.18098510882016,1.0,102.7108473758978,300
301,32.7970479704797,125.1830985915493,36.130081300813,14.26645264847512,12.51830985915493,1.0,221.89499037047204,301
302,42.526315789473685,33.53962264150943,404.0,21.011820330969268,7.830837004405286,1.0,509.9085957663577,302
303,634.8571428571429,37.344537815126046,44.663316582914575,12.158686730506156,6.932917316692667,1.0,736.9566013023823,303
304,31.856630824372758,15.115646258503403,48.568306010928964,12.60709219858156,5.600504095778198,1.0,114.74817938816487,304
305,25.467048710601716,21.314148681055155,30.648275862068964,3.35522838807097,7.715277777777778,1.0,89.49997941957457,305
306,35.983805668016196,52.59171597633136,36.130081300813,3.35522838807097,5.600504095778198,1.0,134.66133542900974,306
307,34.85490196078432,9.248699271592091,43.78325123152709,3.35522838807097,7.830837004405286,1.0,100.07291785637975,307
308,33.04089219330855,21.314148681055155,53.221556886227546,12.60709219858156,7.830837004405286,1.0,129.0145269635781,308
309,42.73076923076923,10.287037037037038,34.316602316602314,14.26645264847512,7.830837004405286,1.0,110.43169823728898,309
310,35.552,19.973033707865167,30.648275862068964,12.158686730506156,7.830837004405286,1.0,107.16283330484558,310
311,40.58447488584475,17.91935483870968,34.99212598425197,6.687735139202409,5.600504095778198,1.0,106.784194943787,311
312,33.04089219330855,11.572916666666666,33.16417910447761,6.687735139202409,5.600504095778198,1.0,91.06622719943341,312
313,45.3469387755102,25.988304093567248,43.78325123152709,3.35522838807097,7.715277777777778,1.0,127.18900026645328,313
314,75.96581196581197,9.248699271592091,30.648275862068964,6.687735139202409,7.830837004405286,1.0,131.3813592430807,314
315,35.83870967741936,37.344537815126046,116.94736842105263,12.60709219858156,7.830837004405286,1.0,211.5685451165849,315
316,32.43795620437956,32.43795620437956,35.552,14.26645264847512,6.398848092152628,1.0,122.09321314938687,316
317,35.983805668016196,26.06451612903226,99.86516853932584,3.35522838807097,6.932917316692667,1.0,173.20163604113796,317
318,35.983805668016196,17.91935483870968,35.552,3.35522838807097,5.600504095778198,1.0,99.41089299057504,318
319,101.0,15.115646258503403,44.0,12.60709219858156,10.18098510882016,1.0,183.90372356590512,319
320,34.583657587548636,52.59171597633136,56.25316455696203,6.687735139202409,7.830837004405286,1.0,158.9471102644497,320
321,25.467048710601716,15.115646258503403,36.130081300813,12.60709219858156,10.18098510882016,1.0,100.50085357731984,321
322,34.85490196078432,52.59171597633136,51.976608187134495,12.158686730506156,7.830837004405286,1.0,160.4127498591616,322
323,31.856630824372758,99.86516853932584,125.1830985915493,3.35522838807097,7.830837004405286,1.0,269.0909633477242,323
324,33.04089219330855,9.53648068669528,54.864197530864196,13.758513931888546,7.715277777777778,1.0,119.91536212053434,324
325,34.85490196078432,11.572916666666666,101.0,12.60709219858156,11.772185430463576,1.0,172.80709625649612,325
326,32.43795620437956,17.91935483870968,39.15418502202643,3.35522838807097,6.398848092152628,1.0,100.26557254533927,326
327,40.58447488584475,10.287037037037038,99.86516853932584,3.35522838807097,10.18098510882016,1.0,165.27289395909875,327
328,31.856630824372758,9.248699271592091,72.260162601626,7.475189234650967,7.830837004405286,1.0,129.67151893664712,328
329,45.3469387755102,17.91935483870968,44.663316582914575,6.687735139202409,7.830837004405286,1.0,123.44818234074214,329
330,35.26984126984127,33.04089219330855,46.05181347150259,99.86516853932584,7.830837004405286,1.0,223.05855247838355,330
331,51.08045977011494,15.115646258503403,35.552,3.35522838807097,5.600504095778198,1.0,111.7038385124675,331
332,134.66666666666669,9.53648068669528,67.8473282442748,3.35522838807097,7.830837004405286,1.0,224.236540990113,332
333,32.43795620437956,10.287037037037038,42.32380952380952,3.35522838807097,7.715277777777778,1.0,97.11930893107487,333
334,30.231292517006807,9.248699271592091,72.260162601626,12.60709219858156,7.830837004405286,1.0,133.17808359321174,334
335,31.856630824372758,9.248699271592091,49.37777777777778,14.26645264847512,7.830837004405286,1.0,113.58039752662303,335
336,197.51111111111112,37.344537815126046,52.904761904761905,7.475189234650967,5.600504095778198,1.0,301.83610416142824,336
337,32.43795620437956,34.316602316602314,49.37777777777778,21.011820330969268,7.830837004405286,1.0,145.9749936341342,337
338,32.43795620437956,33.53962264150943,38.98245614035088,21.011820330969268,6.398848092152628,1.0,133.37070340936177,338
339,24.896358543417367,46.53403141361257,51.976608187134495,12.60709219858156,5.600504095778198,1.0,142.6145944385242,339
340,34.85490196078432,37.344537815126046,46.05181347150259,6.687735139202409,7.830837004405286,1.0,133.76982539102065,340
341,99.86516853932584,33.53962264150943,30.648275862068964,3.35522838807097,5.600504095778198,1.0,174.00879952675342,341
342,33.04089219330855,11.572916666666666,34.316602316602314,3.35522838807097,7.715277777777778,1.0,91.00091734242628,342
343,32.7970479704797,99.86516853932584,167.69811320754715,7.475189234650967,5.600504095778198,1.0,314.4360230477818,343
344,31.856630824372758,15.115646258503403,37.344537815126046,3.35522838807097,6.398848092152628,1.0,95.07089137822581,344
345,99.86516853932584,10.287037037037038,132.65671641791045,14.26645264847512,7.830837004405286,1.0,265.9062116471537,345
346,31.856630824372758,15.115646258503403,67.8473282442748,6.687735139202409,10.18098510882016,1.0,132.68832557517354,346
347,42.526315789473685,15.115646258503403,52.904761904761905,99.86516853932584,5.600504095778198,1.0,217.01239658784306,347
348,75.96581196581197,17.91935483870968,44.0,3.35522838807097,6.932917316692667,1.0,149.1733125092853,348
349,31.5177304964539,33.04089219330855,99.86516853932584,3.35522838807097,6.398848092152628,1.0,175.1778677093119,349
350,31.5177304964539,33.53962264150943,99.86516853932584,3.35522838807097,10.18098510882016,1.0,179.4587351741803,350
351,32.43795620437956,9.53648068669528,53.54216867469879,7.475189234650967,12.51830985915493,1.0,116.51010465957953,351
352,25.03661971830986,11.572916666666666,38.98245614035088,3.35522838807097,10.18098510882016,1.0,90.12820602221854,352
353,32.7970479704797,132.65671641791045,99.86516853932584,6.687735139202409,7.715277777777778,1.0,280.72194584469617,353
354,48.83516483516484,32.43795620437956,34.316602316602314,6.687735139202409,10.18098510882016,1.0,133.45844360416928,354
355,33.04089219330855,15.115646258503403,37.50210970464135,12.158686730506156,5.600504095778198,1.0,104.41783898273765,355
356,25.03661971830986,21.314148681055155,132.65671641791045,3.35522838807097,10.18098510882016,1.0,193.5436983141666,356
357,25.467048710601716,11.572916666666666,52.59171597633136,99.86516853932584,5.600504095778198,1.0,196.0973539887038,357
358,35.552,17.91935483870968,101.0,12.158686730506156,7.715277777777778,1.0,175.34531934699362,358
359,35.26984126984127,11.572916666666666,46.05181347150259,3.35522838807097,6.398848092152628,1.0,103.64864788823414,359
360,35.26984126984127,10.287037037037038,54.864197530864196,12.158686730506156,11.772185430463576,1.0,125.35194799871225,360
361,34.85490196078432,9.248699271592091,57.71428571428571,3.35522838807097,6.398848092152628,1.0,112.57196342688572,361
362,24.896358543417367,11.572916666666666,46.05181347150259,13.758513931888546,6.932917316692667,1.0,104.21251993016784,362
363,30.231292517006807,20.863849765258216,34.316602316602314,6.687735139202409,12.51830985915493,1.0,105.61778959722466,363
364,31.076923076923077,27.775,52.59171597633136,13.758513931888546,6.398848092152628,1.0,132.6010010772956,364
365,47.784946236559136,27.775,48.83516483516484,13.758513931888546,6.932917316692667,1.0,146.08654232030523,365
366,31.856630824372758,25.988304093567248,77.28695652173913,14.26645264847512,5.600504095778198,1.0,155.99884818393244,366
367,35.26984126984127,9.53648068669528,30.648275862068964,21.011820330969268,11.772185430463576,1.0,109.23860358003837,367
368,153.24137931034483,37.344537815126046,37.344537815126046,25.837209302325583,7.715277777777778,1.0,262.4829420207003,368
369,35.83870967741936,9.53648068669528,99.86516853932584,14.26645264847512,10.18098510882016,1.0,170.68779666073573,369
370,47.784946236559136,19.973033707865167,39.15418502202643,3.35522838807097,12.51830985915493,1.0,123.78570321367664,370
371,33.04089219330855,9.248699271592091,51.976608187134495,25.837209302325583,11.772185430463576,1.0,132.8755943848243,371
372,34.85490196078432,15.115646258503403,77.28695652173913,21.011820330969268,11.772185430463576,1.0,161.0415105024597,372
373,35.83870967741936,26.06451612903226,53.221556886227546,3.35522838807097,6.932917316692667,1.0,126.4129283974428,373
374,51.3757225433526,20.863849765258216,57.71428571428571,3.35522838807097,6.398848092152628,1.0,140.70793450312013,374
375,35.26984126984127,19.973033707865167,44.663316582914575,14.26645264847512,7.715277777777778,1.0,122.8879219868739,375
376,99.86516853932584,9.248699271592091,43.78325123152709,12.60709219858156,6.932917316692667,1.0,173.43712855771926,376
377,25.467048710601716,17.91935483870968,125.1830985915493,25.837209302325583,6.398848092152628,1.0,201.80555953533892,377
378,35.26984126984127,10.287037037037038,77.28695652173913,13.758513931888546,6.398848092152628,1.0,144.00119685265864,378
379,35.26984126984127,37.344537815126046,72.260162601626,3.35522838807097,7.830837004405286,1.0,157.06060707906957,379
380,99.86516853932584,15.115646258503403,42.32380952380952,3.35522838807097,11.772185430463576,1.0,173.4320381401733,380
381,42.73076923076923,9.248699271592091,53.221556886227546,12.158686730506156,5.600504095778198,1.0,123.96021621487323,381
382,24.896358543417367,9.53648068669528,63.0354609929078,3.35522838807097,5.600504095778198,1.0,107.42403270686961,382
383,33.04089219330855,15.115646258503403,72.260162601626,3.35522838807097,6.398848092152628,1.0,131.17077753366155,383
384,24.896358543417367,27.775,99.86516853932584,12.60709219858156,6.398848092152628,1.0,172.5424673734774,384
385,34.583657587548636,15.115646258503403,38.98245614035088,3.35522838807097,5.600504095778198,1.0,98.63749247025207,385
386,51.08045977011494,27.775,99.86516853932584,7.475189234650967,7.715277777777778,1.0,194.9110953218695,386
387,51.3757225433526,9.53648068669528,52.59171597633136,3.35522838807097,6.398848092152628,1.0,124.25799568660284,387
388,51.3757225433526,17.91935483870968,37.344537815126046,3.35522838807097,10.18098510882016,1.0,121.17582869407946,388
389,47.784946236559136,9.53648068669528,30.648275862068964,6.687735139202409,6.932917316692667,1.0,102.59035524121845,389
390,25.03661971830986,9.248699271592091,53.221556886227546,7.475189234650967,10.18098510882016,1.0,106.16305021960062,390
391,42.526315789473685,26.06451612903226,33.16417910447761,3.35522838807097,6.932917316692667,1.0,113.04315672774719,391
392,34.85490196078432,9.53648068669528,53.54216867469879,3.35522838807097,5.600504095778198,1.0,107.88928380602755,392
393,34.85490196078432,9.248699271592091,46.05181347150259,12.60709219858156,12.51830985915493,1.0,116.28081676161547,393
394,42.526315789473685,52.59171597633136,99.86516853932584,13.758513931888546,7.715277777777778,1.0,217.4569920147972,394
395,35.69477911646587,25.988304093567248,48.568306010928964,13.758513931888546,5.600504095778198,1.0,130.61040724862883,395
396,42.526315789473685,33.04089219330855,47.784946236559136,6.687735139202409,6.398848092152628,1.0,137.4387374506964,396
397,25.03661971830986,9.53648068669528,46.05181347150259,12.60709219858156,6.932917316692667,1.0,101.16492339178195,397
398,35.552,10.287037037037038,38.98245614035088,12.60709219858156,6.932917316692667,1.0,105.36150269266213,398
399,31.5177304964539,21.314148681055155,34.316602316602314,3.35522838807097,6.398848092152628,1.0,97.90255797433497,399
400,33.04089219330855,20.863849765258216,43.78325123152709,6.687735139202409,6.398848092152628,1.0,111.7745764214489,400
401,25.467048710601716,19.973033707865167,34.99212598425197,21.011820330969268,5.600504095778198,1.0,108.04453282946632,401
402,32.7970479704797,46.53403141361257,52.59171597633136,6.687735139202409,12.51830985915493,1.0,152.12884035878096,402
403,32.43795620437956,33.04089219330855,101.0,14.26645264847512,10.18098510882016,1.0,191.9262861549834,403
404,32.43795620437956,9.248699271592091,51.976608187134495,3.35522838807097,7.830837004405286,1.0,105.84932905558239,404
405,24.896358543417367,19.973033707865167,57.71428571428571,6.687735139202409,5.600504095778198,1.0,115.87191720054884,405
406,34.85490196078432,21.314148681055155,48.568306010928964,13.758513931888546,7.715277777777778,1.0,127.21114836243476,406
407,35.69477911646587,20.863849765258216,37.344537815126046,6.687735139202409,12.51830985915493,1.0,114.10921169520745,407
408,35.69477911646587,27.775,77.28695652173913,3.35522838807097,6.932917316692667,1.0,152.04488134296864,408
409,99.86516853932584,9.248699271592091,46.05181347150259,3.35522838807097,6.398848092152628,1.0,165.9197577626441,409
410,32.20289855072464,37.344537815126046,53.54216867469879,6.687735139202409,7.830837004405286,1.0,138.60817718415717,410
411,31.5177304964539,37.344537815126046,51.976608187134495,12.60709219858156,11.772185430463576,1.0,146.2181541277596,411
412,45.3469387755102,11.572916666666666,33.16417910447761,7.475189234650967,6.932917316692667,1.0,105.49214109799811,412
413,45.3469387755102,34.316602316602314,39.15418502202643,12.60709219858156,5.600504095778198,1.0,138.02532240849874,413
414,98.75555555555556,11.572916666666666,51.976608187134495,12.60709219858156,5.600504095778198,1.0,181.5126767037165,414
415,31.076923076923077,9.248699271592091,44.663316582914575,3.35522838807097,7.715277777777778,1.0,97.05944509727848,415
416,51.08045977011494,10.287037037037038,33.16417910447761,14.26645264847512,5.600504095778198,1.0,115.3986326558829,416
417,48.83516483516484,11.572916666666666,51.976608187134495,21.011820330969268,12.51830985915493,1.0,146.9148198790902,417
418,99.86516853932584,17.91935483870968,56.25316455696203,6.687735139202409,7.830837004405286,1.0,189.55626007860522,418
419,99.86516853932584,10.287037037037038,82.2962962962963,25.837209302325583,7.715277777777778,1.0,227.00098895276253,419
420,24.896358543417367,9.53648068669528,48.83516483516484,6.687735139202409,6.398848092152628,1.0,97.35458729663253,420
421,32.43795620437956,33.04089219330855,53.221556886227546,12.158686730506156,6.932917316692667,1.0,138.79200933111449,421
422,32.7970479704797,34.316602316602314,52.59171597633136,12.60709219858156,5.600504095778198,1.0,138.91296255777314,422
423,35.69477911646587,15.115646258503403,35.552,99.86516853932584,11.772185430463576,1.0,198.99977934475865,423
424,34.583657587548636,10.287037037037038,34.99212598425197,12.158686730506156,12.51830985915493,1.0,105.53981719849872,424
425,25.467048710601716,34.316602316602314,46.05181347150259,21.011820330969268,5.600504095778198,1.0,133.4477889254541,425
426,35.552,21.314148681055155,50.21468926553672,12.158686730506156,6.932917316692667,1.0,127.1724419937907,426
427,35.552,132.65671641791045,47.784946236559136,3.35522838807097,7.715277777777778,1.0,228.06416882031832,427
428,48.83516483516484,33.53962264150943,101.0,7.475189234650967,11.772185430463576,1.0,203.6221621417888,428
429,45.3469387755102,9.53648068669528,53.221556886227546,6.687735139202409,7.830837004405286,1.0,123.62354849204071,429
430,35.83870967741936,11.572916666666666,99.86516853932584,14.26645264847512,7.715277777777778,1.0,170.25852530966475,430
431,30.231292517006807,25.988304093567248,51.674418604651166,6.687735139202409,6.398848092152628,1.0,121.98059844658026,431
432,35.26984126984127,46.53403141361257,67.8473282442748,3.35522838807097,5.600504095778198,1.0,159.60693341157784,432
433,35.552,11.572916666666666,49.37777777777778,3.35522838807097,10.18098510882016,1.0,111.03890794133557,433
434,35.69477911646587,27.775,52.59171597633136,7.475189234650967,12.51830985915493,1.0,137.05499418660312,434
435,30.231292517006807,10.287037037037038,52.59171597633136,12.158686730506156,7.715277777777778,1.0,113.98401003865914,435
436,197.51111111111112,33.53962264150943,87.13725490196077,7.475189234650967,5.600504095778198,1.0,332.26368198501046,436
437,42.526315789473685,15.115646258503403,52.59171597633136,3.35522838807097,7.830837004405286,1.0,122.4197434167847,437
438,45.3469387755102,10.287037037037038,34.99212598425197,3.35522838807097,6.398848092152628,1.0,101.38017827702282,438
439,33.04089219330855,9.248699271592091,39.15418502202643,6.687735139202409,7.830837004405286,1.0,96.96234863053476,439
440,25.467048710601716,25.988304093567248,46.05181347150259,3.35522838807097,6.932917316692667,1.0,108.79531198043519,440
441,98.75555555555556,9.53648068669528,52.904761904761905,12.158686730506156,10.18098510882016,1.0,184.53646998633906,441
442,24.896358543417367,10.287037037037038,30.648275862068964,3.35522838807097,6.932917316692667,1.0,77.11981714728701,442
443,35.69477911646587,99.86516853932584,46.05181347150259,12.60709219858156,10.18098510882016,1.0,205.399838434696,443
444,34.85490196078432,11.572916666666666,39.15418502202643,7.475189234650967,7.830837004405286,1.0,101.88802988853367,444
445,51.3757225433526,33.53962264150943,54.864197530864196,3.35522838807097,6.932917316692667,1.0,151.06768842048987,445
446,25.03661971830986,10.287037037037038,44.0,6.687735139202409,11.772185430463576,1.0,98.78357732501289,446
447,35.83870967741936,32.43795620437956,47.784946236559136,12.60709219858156,12.51830985915493,1.0,142.18701417609455,447
448,24.896358543417367,34.316602316602314,48.568306010928964,3.35522838807097,7.830837004405286,1.0,119.9673322634249,448
449,99.86516853932584,15.115646258503403,54.864197530864196,7.475189234650967,12.51830985915493,1.0,190.83851142249932,449
450,32.7970479704797,10.287037037037038,99.86516853932584,6.687735139202409,7.830837004405286,1.0,158.46782569045027,450
451,33.04089219330855,19.973033707865167,37.50210970464135,6.687735139202409,11.772185430463576,1.0,109.97595617548104,451
452,34.583657587548636,9.248699271592091,37.50210970464135,12.60709219858156,12.51830985915493,1.0,107.45986862151857,452
453,31.076923076923077,99.86516853932584,34.316602316602314,12.158686730506156,5.600504095778198,1.0,184.0178847591356,453
454,98.75555555555556,17.91935483870968,33.16417910447761,3.35522838807097,5.600504095778198,1.0,159.79482198259203,454
455,45.3469387755102,9.248699271592091,33.16417910447761,6.687735139202409,6.932917316692667,1.0,102.38046960747498,455
456,42.73076923076923,10.287037037037038,43.78325123152709,7.475189234650967,11.772185430463576,1.0,117.0484321644479,456
457,34.85490196078432,15.115646258503403,46.05181347150259,6.687735139202409,12.51830985915493,1.0,116.22840668914765,457
458,31.076923076923077,27.775,44.0,7.475189234650967,6.932917316692667,1.0,118.26002962826671,458
459,153.24137931034483,11.572916666666666,53.54216867469879,12.60709219858156,5.600504095778198,1.0,237.56406094607004,459
460,42.73076923076923,10.287037037037038,99.86516853932584,7.475189234650967,7.715277777777778,1.0,169.07344181956086,460
461,45.3469387755102,10.287037037037038,101.0,13.758513931888546,5.600504095778198,1.0,176.992993840214,461
462,31.856630824372758,27.775,53.54216867469879,3.35522838807097,5.600504095778198,1.0,123.12953198292071,462
463,134.66666666666669,9.248699271592091,44.0,13.758513931888546,6.398848092152628,1.0,209.07272796229998,463
464,32.7970479704797,9.248699271592091,46.05181347150259,3.35522838807097,12.51830985915493,1.0,104.97109896080028,464
465,32.43795620437956,46.53403141361257,34.99212598425197,3.35522838807097,5.600504095778198,1.0,123.91984608609326,465
466,35.26984126984127,15.115646258503403,202.0,12.60709219858156,5.600504095778198,1.0,271.59308382270444,466
467,32.43795620437956,33.04089219330855,132.65671641791045,6.687735139202409,11.772185430463576,1.0,217.59548538526454,467
468,35.83870967741936,52.59171597633136,51.976608187134495,6.687735139202409,11.772185430463576,1.0,159.8669544105512,468
469,31.076923076923077,27.775,50.21468926553672,14.26645264847512,7.715277777777778,1.0,132.0483427687127,469
470,134.66666666666669,9.53648068669528,36.130081300813,12.60709219858156,6.398848092152628,1.0,200.33916894490918,470
471,99.86516853932584,26.06451612903226,46.05181347150259,12.60709219858156,12.51830985915493,1.0,198.10690019759718,471
472,99.86516853932584,9.248699271592091,72.260162601626,3.35522838807097,6.398848092152628,1.0,192.12810689276753,472
473,99.86516853932584,10.287037037037038,37.344537815126046,6.687735139202409,5.600504095778198,1.0,160.7849826264695,473
474,45.3469387755102,15.115646258503403,44.663316582914575,6.687735139202409,6.398848092152628,1.0,119.21248484828322,474
475,35.26984126984127,10.287037037037038,34.316602316602314,7.475189234650967,10.18098510882016,1.0,98.52965496695174,475
476,34.85490196078432,11.572916666666666,101.0,3.35522838807097,6.932917316692667,1.0,158.71596433221464,476
477,34.85490196078432,9.53648068669528,53.221556886227546,3.35522838807097,11.772185430463576,1.0,113.74035335224168,477
478,98.75555555555556,11.572916666666666,38.98245614035088,7.475189234650967,7.830837004405286,1.0,165.61695460162937,478
479,25.467048710601716,25.988304093567248,48.568306010928964,12.158686730506156,11.772185430463576,1.0,124.95453097606767,479
480,134.66666666666669,125.1830985915493,77.28695652173913,12.158686730506156,6.398848092152628,1.0,356.69425660261385,480
481,24.896358543417367,17.91935483870968,48.568306010928964,3.35522838807097,7.715277777777778,1.0,103.45452555890475,481
482,35.983805668016196,9.53648068669528,57.71428571428571,6.687735139202409,6.398848092152628,1.0,117.32115530035222,482
483,31.856630824372758,9.248699271592091,37.344537815126046,7.475189234650967,11.772185430463576,1.0,98.69724257620544,483
484,30.231292517006807,9.248699271592091,202.0,202.0,7.830837004405286,1.0,452.3108287930042,484
485,42.73076923076923,132.65671641791045,30.648275862068964,3.35522838807097,10.18098510882016,1.0,220.57197500763976,485
486,51.3757225433526,15.115646258503403,37.50210970464135,3.35522838807097,6.398848092152628,1.0,114.74755498672096,486
487,35.26984126984127,17.91935483870968,36.130081300813,12.60709219858156,11.772185430463576,1.0,114.6985550384091,487
488,98.75555555555556,9.53648068669528,48.568306010928964,14.26645264847512,12.51830985915493,1.0,184.64510476080983,488
489,25.03661971830986,10.287037037037038,42.32380952380952,7.475189234650967,6.932917316692667,1.0,93.05557283050005,489
490,98.75555555555556,9.248699271592091,202.0,7.475189234650967,5.600504095778198,1.0,324.0799481575768,490
491,32.43795620437956,9.53648068669528,51.674418604651166,6.687735139202409,5.600504095778198,1.0,106.93709473070659,491
492,47.784946236559136,11.572916666666666,53.221556886227546,12.158686730506156,6.398848092152628,1.0,132.13695461211213,492
493,31.076923076923077,19.973033707865167,46.05181347150259,3.35522838807097,7.715277777777778,1.0,109.17227642213957,493
494,31.856630824372758,19.973033707865167,34.316602316602314,99.86516853932584,6.398848092152628,1.0,193.41028348031872,494
495,35.983805668016196,34.316602316602314,48.83516483516484,13.758513931888546,6.932917316692667,1.0,140.8270040683646,495
496,42.73076923076923,9.53648068669528,77.28695652173913,6.687735139202409,6.398848092152628,1.0,143.6407896705587,496
497,30.231292517006807,33.53962264150943,35.552,13.758513931888546,5.600504095778198,1.0,119.68193318618297,497
498,25.03661971830986,46.53403141361257,37.344537815126046,3.35522838807097,6.398848092152628,1.0,119.66926542727208,498
499,35.983805668016196,15.115646258503403,49.37777777777778,3.35522838807097,7.715277777777778,1.0,112.54773587014611,499
500,35.983805668016196,11.572916666666666,51.976608187134495,14.26645264847512,6.932917316692667,1.0,121.73270048698515,500
501,24.896358543417367,125.1830985915493,34.316602316602314,6.687735139202409,7.715277777777778,1.0,199.79907236854916,501
502,35.83870967741936,10.287037037037038,99.86516853932584,21.011820330969268,6.398848092152628,1.0,174.40158367690415,502
503,24.896358543417367,9.53648068669528,35.552,3.35522838807097,6.932917316692667,1.0,81.27298493487628,503
504,34.85490196078432,10.287037037037038,46.05181347150259,3.35522838807097,7.715277777777778,1.0,103.2642586351727,504
505,34.85490196078432,25.988304093567248,36.130081300813,6.687735139202409,6.932917316692667,1.0,111.59393981105964,505
506,98.75555555555556,10.287037037037038,34.99212598425197,3.35522838807097,5.600504095778198,1.0,153.99045106069374,506
507,101.0,46.53403141361257,57.71428571428571,13.758513931888546,6.398848092152628,1.0,226.4056791519395,507
508,25.03661971830986,15.115646258503403,37.344537815126046,3.35522838807097,7.715277777777778,1.0,89.56730995778805,508
509,51.08045977011494,19.973033707865167,72.260162601626,13.758513931888546,6.398848092152628,1.0,164.4710181036473,509
510,167.69811320754715,9.248699271592091,113.94871794871796,3.35522838807097,5.600504095778198,1.0,300.85126291170644,510
511,98.75555555555556,26.06451612903226,53.221556886227546,3.35522838807097,6.398848092152628,1.0,188.79570505103896,511
512,35.983805668016196,34.316602316602314,54.864197530864196,7.475189234650967,11.772185430463576,1.0,145.41198018059725,512
513,25.467048710601716,33.53962264150943,47.784946236559136,99.86516853932584,6.398848092152628,1.0,214.05563422014873,513
514,35.552,15.115646258503403,53.221556886227546,3.35522838807097,11.772185430463576,1.0,120.01661696326549,514
515,99.86516853932584,20.863849765258216,39.15418502202643,12.60709219858156,7.830837004405286,1.0,181.32113252959735,515
516,35.69477911646587,17.91935483870968,53.54216867469879,3.35522838807097,5.600504095778198,1.0,117.11203511372351,516
517,24.896358543417367,20.863849765258216,153.24137931034483,21.011820330969268,7.715277777777778,1.0,228.72868572776747,517
518,31.076923076923077,52.59171597633136,52.904761904761905,3.35522838807097,7.715277777777778,1.0,148.6439071238651,518
519,33.04089219330855,20.863849765258216,30.648275862068964,99.86516853932584,12.51830985915493,1.0,197.9364962191165,519
520,35.26984126984127,27.775,53.54216867469879,21.011820330969268,10.18098510882016,1.0,148.77981538432948,520
521,25.03661971830986,10.287037037037038,34.316602316602314,25.837209302325583,6.398848092152628,1.0,102.87631646642743,521
522,24.896358543417367,10.287037037037038,35.552,6.687735139202409,6.932917316692667,1.0,85.35604803634946,522
523,31.076923076923077,10.287037037037038,51.976608187134495,14.26645264847512,7.830837004405286,1.0,116.43785795397501,523
524,50.5,9.53648068669528,42.32380952380952,3.35522838807097,6.932917316692667,1.0,113.64843591526844,524
525,34.85490196078432,10.287037037037038,42.32380952380952,99.86516853932584,11.772185430463576,1.0,200.1031024914203,525
526,98.75555555555556,19.973033707865167,46.05181347150259,7.475189234650967,10.18098510882016,1.0,183.43657707839444,526
527,40.58447488584475,15.115646258503403,99.86516853932584,21.011820330969268,5.600504095778198,1.0,183.17761411042147,527
528,51.3757225433526,25.988304093567248,56.25316455696203,14.26645264847512,7.715277777777778,1.0,156.59892162013475,528
529,45.3469387755102,19.973033707865167,42.32380952380952,7.475189234650967,5.600504095778198,1.0,121.71947533761404,529
530,25.03661971830986,20.863849765258216,46.05181347150259,7.475189234650967,7.715277777777778,1.0,108.14274996749941,530
531,35.983805668016196,9.248699271592091,38.98245614035088,13.758513931888546,6.932917316692667,1.0,105.90639232854038,531
532,34.583657587548636,9.248699271592091,77.28695652173913,3.35522838807097,6.932917316692667,1.0,132.4074590856435,532
533,45.3469387755102,34.316602316602314,63.0354609929078,14.26645264847512,5.600504095778198,1.0,163.56595882927363,533
534,134.66666666666669,25.988304093567248,47.784946236559136,3.35522838807097,11.772185430463576,1.0,224.5673308153276,534
535,153.24137931034483,26.06451612903226,63.0354609929078,6.687735139202409,11.772185430463576,1.0,261.8012770019509,535
536,25.467048710601716,17.91935483870968,52.904761904761905,12.60709219858156,5.600504095778198,1.0,115.49876174843305,536
537,42.73076923076923,19.973033707865167,54.864197530864196,12.60709219858156,6.932917316692667,1.0,138.10800998477285,537
538,35.83870967741936,26.06451612903226,126.97142857142858,12.158686730506156,11.772185430463576,1.0,213.8055265388499,538
539,25.03661971830986,34.316602316602314,113.94871794871796,3.35522838807097,7.715277777777778,1.0,185.37244614947886,539
540,35.552,10.287037037037038,67.8473282442748,12.158686730506156,7.830837004405286,1.0,134.6758890162233,540
541,34.583657587548636,37.344537815126046,51.674418604651166,3.35522838807097,10.18098510882016,1.0,138.13882750421698,541
542,35.983805668016196,404.0,44.0,21.011820330969268,7.715277777777778,1.0,513.7109037767633,542
543,24.896358543417367,9.53648068669528,53.221556886227546,3.35522838807097,7.715277777777778,1.0,99.72490228218894,543
544,31.5177304964539,32.43795620437956,33.16417910447761,25.837209302325583,6.398848092152628,1.0,130.3559231997893,544
545,31.5177304964539,20.863849765258216,57.71428571428571,3.35522838807097,6.932917316692667,1.0,121.38401168076146,545
546,99.86516853932584,27.775,42.32380952380952,6.687735139202409,10.18098510882016,1.0,187.8326983111579,546
547,30.231292517006807,25.988304093567248,99.86516853932584,3.35522838807097,6.398848092152628,1.0,166.8388416301235,547
548,25.03661971830986,27.775,82.2962962962963,3.35522838807097,11.772185430463576,1.0,151.2353298331407,548
549,99.86516853932584,9.53648068669528,99.86516853932584,3.35522838807097,7.715277777777778,1.0,221.3373239311957,549
550,45.3469387755102,9.53648068669528,48.568306010928964,13.758513931888546,11.772185430463576,1.0,129.98242483548657,550
551,48.83516483516484,17.91935483870968,52.59171597633136,12.158686730506156,6.932917316692667,1.0,139.4378396974047,551
552,32.20289855072464,11.572916666666666,56.25316455696203,13.758513931888546,7.715277777777778,1.0,122.50277148401965,552
553,35.69477911646587,37.344537815126046,56.25316455696203,6.687735139202409,7.830837004405286,1.0,144.81105363216162,553
554,51.3757225433526,17.91935483870968,39.15418502202643,6.687735139202409,7.830837004405286,1.0,123.96783454769641,554
555,50.5,33.53962264150943,63.0354609929078,3.35522838807097,6.932917316692667,1.0,158.3632293391809,555
556,34.85490196078432,33.04089219330855,51.976608187134495,3.35522838807097,7.715277777777778,1.0,131.9429085070761,556
557,99.86516853932584,37.344537815126046,46.05181347150259,12.158686730506156,10.18098510882016,1.0,206.6011916652808,557
558,31.5177304964539,37.344537815126046,37.344537815126046,13.758513931888546,7.830837004405286,1.0,128.79615706299984,558
559,45.3469387755102,20.863849765258216,51.976608187134495,13.758513931888546,6.398848092152628,1.0,139.3447587519441,559
560,31.856630824372758,37.344537815126046,53.54216867469879,6.687735139202409,6.398848092152628,1.0,136.82992054555262,560
561,51.08045977011494,26.06451612903226,63.0354609929078,7.475189234650967,6.398848092152628,1.0,155.05447421885862,561
562,32.7970479704797,34.316602316602314,44.0,14.26645264847512,12.51830985915493,1.0,138.89841279471207,562
563,34.583657587548636,9.53648068669528,38.98245614035088,6.687735139202409,6.398848092152628,1.0,97.18917764594983,563
564,25.467048710601716,32.43795620437956,33.16417910447761,3.35522838807097,7.830837004405286,1.0,103.25524941193514,564
565,48.83516483516484,32.43795620437956,30.648275862068964,21.011820330969268,7.830837004405286,1.0,141.76405423698793,565
566,40.58447488584475,20.863849765258216,30.648275862068964,3.35522838807097,7.715277777777778,1.0,104.16710667902066,566
567,48.83516483516484,32.43795620437956,116.94736842105263,13.758513931888546,10.18098510882016,1.0,223.15998850130575,567
568,30.231292517006807,21.314148681055155,126.97142857142858,3.35522838807097,6.932917316692667,1.0,189.8050154742542,568
569,25.467048710601716,9.248699271592091,52.59171597633136,12.60709219858156,7.830837004405286,1.0,108.745393161512,569
570,35.26984126984127,37.344537815126046,51.976608187134495,12.60709219858156,11.772185430463576,1.0,149.97026490114695,570
571,32.7970479704797,20.863849765258216,56.25316455696203,3.35522838807097,6.398848092152628,1.0,120.66813877292356,571
572,34.583657587548636,27.775,99.86516853932584,3.35522838807097,11.772185430463576,1.0,178.35123994540902,572
573,35.26984126984127,10.287037037037038,47.784946236559136,3.35522838807097,10.18098510882016,1.0,107.87803804032856,573
574,32.20289855072464,10.287037037037038,37.344537815126046,13.758513931888546,5.600504095778198,1.0,100.19349143055446,574
575,25.03661971830986,17.91935483870968,56.25316455696203,3.35522838807097,7.830837004405286,1.0,111.39520450645782,575
576,25.467048710601716,11.572916666666666,42.32380952380952,12.158686730506156,12.51830985915493,1.0,105.04077149073899,576
577,45.3469387755102,10.287037037037038,46.05181347150259,3.35522838807097,12.51830985915493,1.0,118.55932753127573,577
578,99.86516853932584,9.248699271592091,50.21468926553672,7.475189234650967,6.398848092152628,1.0,174.20259440325825,578
579,24.896358543417367,9.248699271592091,51.976608187134495,3.35522838807097,11.772185430463576,1.0,102.2490798206785,579
580,35.552,34.316602316602314,33.16417910447761,25.837209302325583,5.600504095778198,1.0,135.4704948191837,580
581,25.03661971830986,17.91935483870968,46.05181347150259,6.687735139202409,7.830837004405286,1.0,104.52636017212981,581
582,33.04089219330855,27.775,35.552,3.35522838807097,7.830837004405286,1.0,108.5539575857848,582
583,25.03661971830986,46.53403141361257,46.05181347150259,13.758513931888546,7.715277777777778,1.0,140.09625631309135,583
584,48.83516483516484,9.248699271592091,48.83516483516484,6.687735139202409,7.830837004405286,1.0,122.43760108552945,584
585,35.26984126984127,10.287037037037038,99.86516853932584,3.35522838807097,5.600504095778198,1.0,155.37777933005333,585
586,34.85490196078432,32.43795620437956,39.15418502202643,13.758513931888546,6.398848092152628,1.0,127.60440521123148,586
587,99.86516853932584,11.572916666666666,125.1830985915493,21.011820330969268,6.932917316692667,1.0,265.56592144520374,587
588,34.85490196078432,9.248699271592091,30.648275862068964,14.26645264847512,6.398848092152628,1.0,96.41717783507313,588
589,32.7970479704797,26.06451612903226,30.648275862068964,3.35522838807097,7.715277777777778,1.0,101.58034612742966,589
590,32.20289855072464,26.06451612903226,47.784946236559136,7.475189234650967,7.830837004405286,1.0,122.35838715537228,590
591,32.43795620437956,9.248699271592091,42.32380952380952,14.26645264847512,5.600504095778198,1.0,104.87742174403448,591
592,99.86516853932584,11.572916666666666,39.15418502202643,3.35522838807097,5.600504095778198,1.0,160.54800271186812,592
593,31.076923076923077,9.248699271592091,43.78325123152709,99.86516853932584,7.830837004405286,1.0,192.8048791237734,593
594,35.552,11.572916666666666,35.552,14.26645264847512,6.398848092152628,1.0,104.34221740729443,594
595,50.5,17.91935483870968,153.24137931034483,14.26645264847512,7.830837004405286,1.0,244.7580238019349,595
596,99.86516853932584,9.248699271592091,53.54216867469879,12.60709219858156,11.772185430463576,1.0,188.03531411466184,596
597,35.26984126984127,10.287037037037038,53.221556886227546,3.35522838807097,5.600504095778198,1.0,108.73416767695501,597
598,99.86516853932584,10.287037037037038,202.0,21.011820330969268,7.715277777777778,1.0,341.8793036851099,598
599,32.20289855072464,17.91935483870968,53.221556886227546,6.687735139202409,10.18098510882016,1.0,121.21253052368442,599
600,634.8571428571429,17.91935483870968,49.37777777777778,7.475189234650967,7.715277777777778,1.0,718.3447424860591,600
601,34.583657587548636,25.988304093567248,30.648275862068964,3.35522838807097,11.772185430463576,1.0,107.3476513617194,601
602,35.552,25.988304093567248,34.316602316602314,14.26645264847512,12.51830985915493,1.0,123.6416689177996,602
603,35.26984126984127,32.43795620437956,46.05181347150259,3.35522838807097,11.772185430463576,1.0,129.88702476425794,603
604,99.86516853932584,19.973033707865167,48.568306010928964,7.475189234650967,11.772185430463576,1.0,188.6538829232345,604
605,31.5177304964539,10.287037037037038,53.221556886227546,99.86516853932584,6.932917316692667,1.0,202.82441027573702,605
606,50.5,9.248699271592091,202.0,6.687735139202409,12.51830985915493,1.0,281.95474426994946,606
607,101.0,19.973033707865167,72.260162601626,21.011820330969268,7.830837004405286,1.0,223.07585364486573,607
608,25.467048710601716,9.248699271592091,35.552,6.687735139202409,7.715277777777778,1.0,85.67076089917398,608
609,31.856630824372758,26.06451612903226,43.78325123152709,3.35522838807097,5.600504095778198,1.0,111.66013066878126,609
610,35.983805668016196,9.248699271592091,56.25316455696203,12.60709219858156,11.772185430463576,1.0,126.86494712561546,610
611,32.7970479704797,33.53962264150943,30.648275862068964,21.011820330969268,5.600504095778198,1.0,124.59727090080555,611
612,35.83870967741936,46.53403141361257,46.05181347150259,6.687735139202409,6.932917316692667,1.0,143.0452070184296,612
613,34.85490196078432,33.04089219330855,30.648275862068964,7.475189234650967,12.51830985915493,1.0,119.53756910996773,613
614,35.552,37.344537815126046,33.16417910447761,3.35522838807097,12.51830985915493,1.0,122.93425516682954,614
615,32.20289855072464,9.53648068669528,49.37777777777778,6.687735139202409,6.398848092152628,1.0,105.20374024655274,615
616,42.526315789473685,9.248699271592091,48.568306010928964,3.35522838807097,11.772185430463576,1.0,116.47073489052929,616
617,50.5,9.53648068669528,35.552,3.35522838807097,6.398848092152628,1.0,106.34255716691888,617
618,31.5177304964539,11.572916666666666,48.83516483516484,14.26645264847512,11.772185430463576,1.0,118.96445007722411,618
619,35.552,46.53403141361257,36.130081300813,12.158686730506156,5.600504095778198,1.0,136.97530354070994,619
620,31.5177304964539,37.344537815126046,37.50210970464135,21.011820330969268,5.600504095778198,1.0,133.9767024429688,620
621,34.85490196078432,17.91935483870968,52.904761904761905,7.475189234650967,7.715277777777778,1.0,121.86948571668464,621
622,35.552,25.988304093567248,51.976608187134495,3.35522838807097,5.600504095778198,1.0,123.4726447645509,622
623,25.467048710601716,9.53648068669528,143.35483870967744,3.35522838807097,7.715277777777778,1.0,190.42887427282318,623
624,47.784946236559136,9.53648068669528,46.05181347150259,12.60709219858156,12.51830985915493,1.0,129.4986424524935,624
625,42.526315789473685,9.248699271592091,50.21468926553672,3.35522838807097,11.772185430463576,1.0,118.11711814513704,625
626,99.86516853932584,15.115646258503403,99.86516853932584,6.687735139202409,5.600504095778198,1.0,228.13422257213568,626
627,35.69477911646587,25.988304093567248,113.94871794871796,21.011820330969268,5.600504095778198,1.0,203.24412558549855,627
628,24.896358543417367,15.115646258503403,52.59171597633136,12.60709219858156,12.51830985915493,1.0,118.7291228359886,628
629,42.526315789473685,19.973033707865167,46.05181347150259,12.60709219858156,11.772185430463576,1.0,133.9304405978866,629
630,51.3757225433526,10.287037037037038,72.260162601626,12.158686730506156,10.18098510882016,1.0,157.26259402134195,630
631,35.69477911646587,9.53648068669528,48.83516483516484,12.60709219858156,12.51830985915493,1.0,120.19182669606246,631
632,25.467048710601716,99.86516853932584,42.32380952380952,3.35522838807097,5.600504095778198,1.0,177.61175925758624,632
633,48.83516483516484,10.287037037037038,37.344537815126046,12.60709219858156,7.715277777777778,1.0,117.78910966368726,633
634,31.5177304964539,11.572916666666666,50.21468926553672,6.687735139202409,5.600504095778198,1.0,106.59357566363788,634
635,35.552,21.314148681055155,116.94736842105263,3.35522838807097,5.600504095778198,1.0,183.76924958595694,635
636,35.552,15.115646258503403,30.648275862068964,7.475189234650967,5.600504095778198,1.0,95.39161545100153,636
637,32.43795620437956,15.115646258503403,53.221556886227546,3.35522838807097,7.715277777777778,1.0,112.84566551495925,637
638,24.896358543417367,9.53648068669528,35.552,12.158686730506156,12.51830985915493,1.0,95.66183581977373,638
639,31.076923076923077,9.53648068669528,44.0,3.35522838807097,5.600504095778198,1.0,94.56913624746751,639
640,51.3757225433526,11.572916666666666,53.54216867469879,12.60709219858156,10.18098510882016,1.0,140.2788851921198,640
641,35.26984126984127,9.53648068669528,44.663316582914575,25.837209302325583,6.932917316692667,1.0,123.23976515846938,641
642,30.231292517006807,10.287037037037038,56.25316455696203,12.60709219858156,11.772185430463576,1.0,122.150771740051,642
643,25.03661971830986,15.115646258503403,35.552,3.35522838807097,7.715277777777778,1.0,87.77477214266202,643
644,48.83516483516484,9.248699271592091,99.86516853932584,3.35522838807097,7.830837004405286,1.0,170.13509803855902,644
645,48.83516483516484,11.572916666666666,36.130081300813,6.687735139202409,12.51830985915493,1.0,116.74420780100183,645
646,47.784946236559136,20.863849765258216,34.316602316602314,12.158686730506156,7.830837004405286,1.0,123.9549220533311,646
647,99.86516853932584,10.287037037037038,51.976608187134495,6.687735139202409,6.932917316692667,1.0,176.74946621939245,647
648,32.7970479704797,33.04089219330855,44.0,21.011820330969268,6.398848092152628,1.0,138.24860858691017,648
649,25.03661971830986,9.53648068669528,50.21468926553672,25.837209302325583,6.398848092152628,1.0,118.02384706502008,649
650,35.983805668016196,11.572916666666666,56.25316455696203,13.758513931888546,5.600504095778198,1.0,124.16890491931161,650
651,35.26984126984127,11.572916666666666,39.15418502202643,25.837209302325583,7.715277777777778,1.0,120.54943003863772,651
652,99.86516853932584,17.91935483870968,33.16417910447761,99.86516853932584,10.18098510882016,1.0,261.9948561306591,652
653,35.983805668016196,11.572916666666666,33.16417910447761,3.35522838807097,12.51830985915493,1.0,97.59443968638637,653
654,35.26984126984127,26.06451612903226,33.16417910447761,3.35522838807097,7.830837004405286,1.0,106.6846018958274,654
655,99.86516853932584,10.287037037037038,33.16417910447761,6.687735139202409,6.398848092152628,1.0,157.40296791219552,655
656,31.076923076923077,9.248699271592091,54.864197530864196,6.687735139202409,7.715277777777778,1.0,110.59283279635955,656
657,30.231292517006807,37.344537815126046,56.25316455696203,3.35522838807097,6.932917316692667,1.0,135.11714059385852,657
658,35.552,11.572916666666666,63.0354609929078,13.758513931888546,7.715277777777778,1.0,132.6341693692408,658
659,42.526315789473685,19.973033707865167,36.130081300813,21.011820330969268,5.600504095778198,1.0,126.24175522489932,659
660,30.231292517006807,9.53648068669528,30.648275862068964,12.158686730506156,6.932917316692667,1.0,90.50765311296988,660
661,99.86516853932584,11.572916666666666,52.904761904761905,25.837209302325583,5.600504095778198,1.0,196.7805605088582,661
662,35.552,27.775,35.552,7.475189234650967,10.18098510882016,1.0,117.53517434347111,662
663,35.983805668016196,46.53403141361257,53.54216867469879,6.687735139202409,7.715277777777778,1.0,151.46301867330772,663
664,42.73076923076923,9.248699271592091,43.78325123152709,3.35522838807097,11.772185430463576,1.0,111.89013355242297,664
665,24.896358543417367,19.973033707865167,113.94871794871796,3.35522838807097,6.932917316692667,1.0,170.10625590476414,665
666,42.73076923076923,11.572916666666666,53.221556886227546,14.26645264847512,7.830837004405286,1.0,130.62253243654385,666
667,34.85490196078432,11.572916666666666,44.663316582914575,12.158686730506156,5.600504095778198,1.0,109.85032603664992,667
668,30.231292517006807,10.287037037037038,38.98245614035088,3.35522838807097,12.51830985915493,1.0,96.37432394162062,668
669,32.20289855072464,33.04089219330855,42.32380952380952,3.35522838807097,6.398848092152628,1.0,118.32167674806632,669
670,32.7970479704797,10.287037037037038,53.221556886227546,12.60709219858156,6.398848092152628,1.0,116.31158218447847,670
671,404.0,26.06451612903226,47.784946236559136,14.26645264847512,7.830837004405286,1.0,500.94675201847184,671
672,24.896358543417367,19.973033707865167,125.1830985915493,12.60709219858156,10.18098510882016,1.0,193.84056815023357,672
673,34.85490196078432,52.59171597633136,67.8473282442748,12.158686730506156,5.600504095778198,1.0,174.05313700767485,673
674,35.26984126984127,9.53648068669528,51.976608187134495,7.475189234650967,6.932917316692667,1.0,112.19103669501469,674
675,35.552,32.43795620437956,99.86516853932584,3.35522838807097,6.932917316692667,1.0,179.14327044846905,675
676,99.86516853932584,25.988304093567248,34.99212598425197,7.475189234650967,11.772185430463576,1.0,181.0929732822596,676
677,99.86516853932584,27.775,72.260162601626,3.35522838807097,10.18098510882016,1.0,214.43654463784296,677
678,25.03661971830986,9.248699271592091,48.83516483516484,7.475189234650967,5.600504095778198,1.0,97.19617715549596,678
679,99.86516853932584,9.248699271592091,30.648275862068964,3.35522838807097,5.600504095778198,1.0,149.71787615683607,679
680,153.24137931034483,125.1830985915493,48.83516483516484,14.26645264847512,6.932917316692667,1.0,349.4590127022268,680
681,35.26984126984127,9.53648068669528,49.37777777777778,12.60709219858156,5.600504095778198,1.0,113.39169602867408,681
682,31.856630824372758,17.91935483870968,30.648275862068964,21.011820330969268,5.600504095778198,1.0,108.03658595189886,682
683,202.0,11.572916666666666,46.05181347150259,13.758513931888546,7.715277777777778,1.0,282.09852184783557,683
684,40.58447488584475,34.316602316602314,72.260162601626,99.86516853932584,7.715277777777778,1.0,255.74168612117666,684
685,24.896358543417367,9.53648068669528,53.221556886227546,6.687735139202409,6.398848092152628,1.0,101.74097934769523,685
686,31.856630824372758,10.287037037037038,116.94736842105263,3.35522838807097,6.932917316692667,1.0,170.37918198722608,686
687,32.43795620437956,11.572916666666666,42.32380952380952,3.35522838807097,5.600504095778198,1.0,96.29041487870491,687
688,35.69477911646587,15.115646258503403,33.16417910447761,12.158686730506156,5.600504095778198,1.0,102.73379530573123,688
689,25.467048710601716,11.572916666666666,101.0,12.158686730506156,11.772185430463576,1.0,162.9708375382381,689
690,47.784946236559136,21.314148681055155,56.25316455696203,7.475189234650967,11.772185430463576,1.0,145.59963413969086,690
691,31.076923076923077,10.287037037037038,67.8473282442748,12.158686730506156,6.398848092152628,1.0,128.76882318089372,691
692,40.58447488584475,11.572916666666666,33.16417910447761,12.158686730506156,6.932917316692667,1.0,105.41317470418785,692
693,50.5,9.248699271592091,99.86516853932584,13.758513931888546,10.18098510882016,1.0,184.55336685162663,693
694,34.85490196078432,15.115646258503403,48.568306010928964,25.837209302325583,7.830837004405286,1.0,133.20690053694756,694
695,35.69477911646587,26.06451612903226,34.99212598425197,7.475189234650967,6.932917316692667,1.0,112.15952778109373,695
696,31.076923076923077,9.53648068669528,87.13725490196077,3.35522838807097,6.932917316692667,1.0,139.03880437034277,696
697,30.231292517006807,25.988304093567248,42.32380952380952,3.35522838807097,10.18098510882016,1.0,113.07961963127471,697
698,98.75555555555556,26.06451612903226,33.16417910447761,21.011820330969268,6.398848092152628,1.0,186.39491921218732,698
699,35.83870967741936,9.53648068669528,42.32380952380952,6.687735139202409,12.51830985915493,1.0,107.90504488628149,699
700,35.552,15.115646258503403,47.784946236559136,3.35522838807097,6.932917316692667,1.0,109.74073819982617,700
701,32.7970479704797,10.287037037037038,50.21468926553672,6.687735139202409,10.18098510882016,1.0,111.16749452107601,701
702,99.86516853932584,21.314148681055155,50.21468926553672,3.35522838807097,7.830837004405286,1.0,183.58007187839397,702
703,35.26984126984127,9.53648068669528,51.976608187134495,25.837209302325583,7.715277777777778,1.0,131.3354172237744,703
704,25.03661971830986,21.314148681055155,48.568306010928964,3.35522838807097,5.600504095778198,1.0,104.87480689414313,704
705,31.076923076923077,9.53648068669528,101.0,6.687735139202409,5.600504095778198,1.0,154.90164299859896,705
706,51.08045977011494,15.115646258503403,53.54216867469879,7.475189234650967,11.772185430463576,1.0,139.98564936843167,706
707,42.73076923076923,132.65671641791045,46.05181347150259,7.475189234650967,6.932917316692667,1.0,236.8474056715259,707
708,30.231292517006807,9.53648068669528,125.1830985915493,12.60709219858156,5.600504095778198,1.0,184.15846808961115,708
709,35.83870967741936,10.287037037037038,202.0,7.475189234650967,7.715277777777778,1.0,264.31621372688517,709
710,35.552,21.314148681055155,99.86516853932584,7.475189234650967,6.932917316692667,1.0,172.13942377172464,710
711,35.26984126984127,33.04089219330855,47.784946236559136,6.687735139202409,11.772185430463576,1.0,135.55560026937493,711
712,31.076923076923077,17.91935483870968,36.130081300813,3.35522838807097,10.18098510882016,1.0,99.66257271333689,712
713,31.076923076923077,11.572916666666666,50.21468926553672,3.35522838807097,12.51830985915493,1.0,109.73806725635237,713
714,35.983805668016196,33.04089219330855,44.663316582914575,13.758513931888546,12.51830985915493,1.0,140.9648382352828,714
715,32.7970479704797,33.53962264150943,30.648275862068964,7.475189234650967,7.715277777777778,1.0,113.17541348648683,715
716,50.5,17.91935483870968,56.25316455696203,6.687735139202409,7.715277777777778,1.0,140.0755323126519,716
717,45.3469387755102,9.53648068669528,37.50210970464135,3.35522838807097,6.398848092152628,1.0,103.13960564707043,717
718,34.85490196078432,20.863849765258216,54.864197530864196,3.35522838807097,6.398848092152628,1.0,121.33702573713033,718
719,32.43795620437956,11.572916666666666,47.784946236559136,12.60709219858156,5.600504095778198,1.0,111.0034154019651,719
720,50.5,10.287037037037038,47.784946236559136,6.687735139202409,7.715277777777778,1.0,123.97499619057635,720
721,50.5,25.988304093567248,37.50210970464135,7.475189234650967,10.18098510882016,1.0,132.64658814167973,721
722,99.86516853932584,9.248699271592091,99.86516853932584,3.35522838807097,7.830837004405286,1.0,221.16510174272,722
723,32.7970479704797,19.973033707865167,99.86516853932584,3.35522838807097,6.932917316692667,1.0,163.92339592243437,723
724,45.3469387755102,10.287037037037038,53.221556886227546,3.35522838807097,10.18098510882016,1.0,123.39174619566592,724
725,31.856630824372758,21.314148681055155,42.32380952380952,14.26645264847512,10.18098510882016,1.0,120.94202678653272,725
726,35.83870967741936,33.04089219330855,39.15418502202643,12.158686730506156,6.932917316692667,1.0,128.12539093995315,726
727,35.26984126984127,9.248699271592091,42.32380952380952,6.687735139202409,5.600504095778198,1.0,100.13058930022349,727
728,35.26984126984127,9.53648068669528,43.78325123152709,13.758513931888546,7.715277777777778,1.0,111.06336489772995,728
729,30.231292517006807,37.344537815126046,37.50210970464135,3.35522838807097,11.772185430463576,1.0,121.20535385530876,729
730,45.3469387755102,27.775,113.94871794871796,14.26645264847512,12.51830985915493,1.0,214.8554192318582,730
731,33.04089219330855,125.1830985915493,38.98245614035088,6.687735139202409,6.932917316692667,1.0,211.8270993811038,731
732,35.983805668016196,15.115646258503403,99.86516853932584,12.158686730506156,10.18098510882016,1.0,174.30429230517174,732
733,32.43795620437956,19.973033707865167,37.344537815126046,3.35522838807097,5.600504095778198,1.0,99.71126021121994,733
734,45.3469387755102,21.314148681055155,43.78325123152709,7.475189234650967,6.932917316692667,1.0,125.85244523943608,734
735,35.26984126984127,25.988304093567248,37.50210970464135,3.35522838807097,6.932917316692667,1.0,110.04840077281351,735
736,35.69477911646587,10.287037037037038,51.976608187134495,25.837209302325583,12.51830985915493,1.0,137.31394350211792,736
737,31.5177304964539,33.53962264150943,50.21468926553672,14.26645264847512,7.715277777777778,1.0,138.25377282975293,737
738,51.08045977011494,9.53648068669528,47.784946236559136,12.158686730506156,6.398848092152628,1.0,127.95942151602816,738
739,99.86516853932584,10.287037037037038,99.86516853932584,99.86516853932584,6.398848092152628,1.0,317.28139074716717,739
740,35.552,34.316602316602314,34.99212598425197,12.158686730506156,6.932917316692667,1.0,124.9523323480531,740
741,35.69477911646587,21.314148681055155,34.316602316602314,21.011820330969268,7.830837004405286,1.0,121.16818744949789,741
742,99.86516853932584,27.775,52.904761904761905,21.011820330969268,6.398848092152628,1.0,208.95559886720963,742
743,32.7970479704797,19.973033707865167,34.316602316602314,3.35522838807097,11.772185430463576,1.0,103.21409781348173,743
744,51.08045977011494,21.314148681055155,67.8473282442748,7.475189234650967,5.600504095778198,1.0,154.31763002587408,744
745,42.526315789473685,32.43795620437956,63.0354609929078,3.35522838807097,10.18098510882016,1.0,152.53594648365217,745
746,25.03661971830986,20.863849765258216,52.59171597633136,6.687735139202409,7.830837004405286,1.0,114.01075760350712,746
747,31.856630824372758,46.53403141361257,49.37777777777778,7.475189234650967,6.932917316692667,1.0,143.17654656710675,747
748,35.26984126984127,21.314148681055155,35.552,3.35522838807097,6.398848092152628,1.0,102.89006643112003,748
749,34.583657587548636,15.115646258503403,54.864197530864196,3.35522838807097,6.398848092152628,1.0,115.31757785713984,749
750,45.3469387755102,9.53648068669528,43.78325123152709,7.475189234650967,6.398848092152628,1.0,113.54070802053617,750
751,47.784946236559136,11.572916666666666,36.130081300813,13.758513931888546,10.18098510882016,1.0,120.42744324474751,751
752,35.83870967741936,9.53648068669528,99.86516853932584,12.158686730506156,6.398848092152628,1.0,164.79789372609926,752
753,32.7970479704797,9.248699271592091,63.0354609929078,3.35522838807097,12.51830985915493,1.0,121.9547464822055,753
754,42.526315789473685,9.53648068669528,404.0,3.35522838807097,10.18098510882016,1.0,470.5990099730601,754
755,24.896358543417367,9.53648068669528,43.78325123152709,3.35522838807097,6.932917316692667,1.0,89.50423616640337,755
756,99.86516853932584,37.344537815126046,34.99212598425197,13.758513931888546,12.51830985915493,1.0,199.47865612974735,756
757,45.3469387755102,19.973033707865167,52.59171597633136,12.158686730506156,6.398848092152628,1.0,137.4692232823655,757
758,35.552,27.775,46.05181347150259,6.687735139202409,5.600504095778198,1.0,122.66705270648318,758
759,24.896358543417367,11.572916666666666,77.28695652173913,12.158686730506156,6.398848092152628,1.0,133.31376655448196,759
760,25.467048710601716,19.973033707865167,56.25316455696203,12.60709219858156,11.772185430463576,1.0,127.07252460447404,760
761,24.896358543417367,46.53403141361257,34.316602316602314,7.475189234650967,6.932917316692667,1.0,121.15509882497588,761
762,35.69477911646587,52.59171597633136,37.344537815126046,7.475189234650967,11.772185430463576,1.0,145.8784075730378,762
763,25.467048710601716,17.91935483870968,51.976608187134495,3.35522838807097,5.600504095778198,1.0,105.31874422029505,763
764,25.467048710601716,17.91935483870968,44.663316582914575,13.758513931888546,10.18098510882016,1.0,112.98921917293467,764
765,25.03661971830986,25.988304093567248,48.83516483516484,7.475189234650967,6.398848092152628,1.0,114.73412597384555,765
766,99.86516853932584,19.973033707865167,63.0354609929078,3.35522838807097,11.772185430463576,1.0,199.00107705863334,766
767,31.5177304964539,25.988304093567248,34.316602316602314,21.011820330969268,7.715277777777778,1.0,121.5497350153705,767
768,31.076923076923077,21.314148681055155,101.0,6.687735139202409,10.18098510882016,1.0,171.2597920060008,768
769,51.08045977011494,32.43795620437956,113.94871794871796,7.475189234650967,6.932917316692667,1.0,212.8752404745561,769
770,35.552,21.314148681055155,30.648275862068964,3.35522838807097,5.600504095778198,1.0,97.47015702697327,770
771,34.85490196078432,11.572916666666666,35.552,6.687735139202409,5.600504095778198,1.0,95.26805786243158,771
772,31.856630824372758,20.863849765258216,99.86516853932584,3.35522838807097,6.932917316692667,1.0,163.87379483372047,772
773,25.03661971830986,21.314148681055155,52.904761904761905,3.35522838807097,6.932917316692667,1.0,110.54367600889056,773
774,25.03661971830986,20.863849765258216,101.0,3.35522838807097,7.715277777777778,1.0,158.97097564941683,774
775,99.86516853932584,19.973033707865167,42.32380952380952,7.475189234650967,10.18098510882016,1.0,180.81818611447164,775
776,167.69811320754715,9.248699271592091,39.15418502202643,6.687735139202409,10.18098510882016,1.0,233.96971774918825,776
777,35.552,17.91935483870968,50.21468926553672,3.35522838807097,6.398848092152628,1.0,114.44012058447001,777
778,45.3469387755102,10.287037037037038,42.32380952380952,25.837209302325583,7.715277777777778,1.0,132.5102724164601,778
779,50.5,27.775,51.976608187134495,6.687735139202409,7.830837004405286,1.0,145.7701803307422,779
780,51.3757225433526,34.316602316602314,167.69811320754715,13.758513931888546,12.51830985915493,1.0,280.66726185854554,780
781,35.83870967741936,25.988304093567248,38.98245614035088,12.158686730506156,11.772185430463576,1.0,125.74034207230723,781
782,35.552,34.316602316602314,30.648275862068964,7.475189234650967,12.51830985915493,1.0,121.51037727247717,782
783,24.896358543417367,37.344537815126046,53.54216867469879,6.687735139202409,5.600504095778198,1.0,129.0713042682228,783
784,50.5,20.863849765258216,87.13725490196077,3.35522838807097,7.830837004405286,1.0,170.68717005969523,784
785,31.5177304964539,37.344537815126046,39.15418502202643,14.26645264847512,10.18098510882016,1.0,133.46389109090168,785
786,31.856630824372758,17.91935483870968,42.32380952380952,3.35522838807097,5.600504095778198,1.0,102.05552767074111,786
787,75.96581196581197,34.316602316602314,51.674418604651166,6.687735139202409,6.932917316692667,1.0,176.57748534296053,787
788,25.03661971830986,17.91935483870968,53.221556886227546,21.011820330969268,6.398848092152628,1.0,124.588199866369,788
789,31.076923076923077,19.973033707865167,51.976608187134495,6.687735139202409,10.18098510882016,1.0,120.8952852199453,789
790,32.20289855072464,33.53962264150943,48.83516483516484,21.011820330969268,12.51830985915493,1.0,149.10781621752312,790
791,35.983805668016196,25.988304093567248,49.37777777777778,3.35522838807097,7.830837004405286,1.0,123.53595293183747,791
792,30.231292517006807,11.572916666666666,39.15418502202643,14.26645264847512,7.830837004405286,1.0,104.05568385858031,792
793,32.43795620437956,26.06451612903226,72.260162601626,12.60709219858156,5.600504095778198,1.0,149.9702312293976,793
794,42.73076923076923,26.06451612903226,99.86516853932584,3.35522838807097,7.830837004405286,1.0,180.84651929160358,794
795,35.26984126984127,32.43795620437956,37.344537815126046,6.687735139202409,6.398848092152628,1.0,119.1389185207019,795
796,34.583657587548636,34.316602316602314,36.130081300813,3.35522838807097,10.18098510882016,1.0,119.56655470185507,796
797,51.3757225433526,9.248699271592091,82.2962962962963,14.26645264847512,12.51830985915493,1.0,170.70548061887104,797
798,32.7970479704797,34.316602316602314,37.50210970464135,12.158686730506156,7.830837004405286,1.0,125.60528372663481,798
799,31.856630824372758,21.314148681055155,46.05181347150259,3.35522838807097,5.600504095778198,1.0,109.17832546077967,799
800,35.26984126984127,25.988304093567248,39.15418502202643,21.011820330969268,5.600504095778198,1.0,128.0246548121824,800
801,42.73076923076923,125.1830985915493,43.78325123152709,6.687735139202409,6.932917316692667,1.0,226.3177715097407,801
802,35.552,17.91935483870968,48.568306010928964,3.35522838807097,10.18098510882016,1.0,116.57587434652976,802
803,32.7970479704797,9.53648068669528,44.663316582914575,12.158686730506156,12.51830985915493,1.0,112.67384182975064,803
804,34.85490196078432,46.53403141361257,35.552,3.35522838807097,5.600504095778198,1.0,126.89666585824604,804
805,45.3469387755102,34.316602316602314,87.13725490196077,3.35522838807097,12.51830985915493,1.0,183.6743342412992,805
806,34.85490196078432,26.06451612903226,46.05181347150259,13.758513931888546,6.398848092152628,1.0,128.12859358536036,806
807,33.04089219330855,9.248699271592091,116.94736842105263,7.475189234650967,6.932917316692667,1.0,174.64506643729692,807
808,34.583657587548636,32.43795620437956,53.54216867469879,25.837209302325583,12.51830985915493,1.0,159.9193016281075,808
809,35.552,20.863849765258216,202.0,6.687735139202409,6.398848092152628,1.0,272.5024329966132,809
810,99.86516853932584,20.863849765258216,50.21468926553672,6.687735139202409,6.398848092152628,1.0,185.03029080147581,810
811,34.85490196078432,27.775,52.59171597633136,25.837209302325583,5.600504095778198,1.0,147.65933133521946,811
812,35.552,9.248699271592091,46.05181347150259,3.35522838807097,11.772185430463576,1.0,106.97992656162923,812
813,40.58447488584475,20.863849765258216,101.0,12.60709219858156,6.932917316692667,1.0,182.9883341663772,813
814,75.96581196581197,9.53648068669528,37.344537815126046,14.26645264847512,5.600504095778198,1.0,143.71378721188663,814
815,98.75555555555556,11.572916666666666,48.83516483516484,6.687735139202409,7.830837004405286,1.0,174.68220920099475,815
816,31.856630824372758,9.53648068669528,44.0,3.35522838807097,7.715277777777778,1.0,97.46361767691678,816
817,31.076923076923077,34.316602316602314,46.05181347150259,3.35522838807097,11.772185430463576,1.0,127.57275268356254,817
818,42.526315789473685,11.572916666666666,46.05181347150259,3.35522838807097,11.772185430463576,1.0,116.27845974617749,818
819,35.983805668016196,32.43795620437956,34.99212598425197,3.35522838807097,6.398848092152628,1.0,114.16796433687134,819
820,42.526315789473685,15.115646258503403,51.674418604651166,3.35522838807097,6.932917316692667,1.0,120.60452635739189,820
821,32.43795620437956,27.775,87.13725490196077,3.35522838807097,7.830837004405286,1.0,159.5362764988166,821
822,98.75555555555556,9.53648068669528,35.552,3.35522838807097,10.18098510882016,1.0,158.38024973914196,822
823,99.86516853932584,20.863849765258216,63.0354609929078,14.26645264847512,12.51830985915493,1.0,211.54924180512188,823
824,42.526315789473685,9.53648068669528,37.344537815126046,25.837209302325583,7.715277777777778,1.0,123.95982137139836,824
825,42.73076923076923,11.572916666666666,51.976608187134495,7.475189234650967,12.51830985915493,1.0,127.27379317837628,825
826,35.69477911646587,25.988304093567248,42.32380952380952,6.687735139202409,6.932917316692667,1.0,118.62754518973772,826
827,34.85490196078432,10.287037037037038,34.316602316602314,21.011820330969268,7.830837004405286,1.0,109.30119864979822,827
828,47.784946236559136,9.53648068669528,34.316602316602314,3.35522838807097,7.830837004405286,1.0,103.82409463233299,828
829,35.552,19.973033707865167,132.65671641791045,6.687735139202409,6.398848092152628,1.0,202.26833335713064,829
830,25.467048710601716,15.115646258503403,37.50210970464135,12.158686730506156,12.51830985915493,1.0,103.76180126340756,830
831,34.85490196078432,17.91935483870968,37.50210970464135,21.011820330969268,6.398848092152628,1.0,118.68703492725726,831
832,30.231292517006807,32.43795620437956,77.28695652173913,3.35522838807097,11.772185430463576,1.0,156.08361906166004,832
833,34.583657587548636,9.53648068669528,67.8473282442748,25.837209302325583,6.398848092152628,1.0,145.20352391299693,833
834,25.467048710601716,11.572916666666666,34.99212598425197,7.475189234650967,6.932917316692667,1.0,87.44019791286398,834
835,34.85490196078432,11.572916666666666,37.344537815126046,3.35522838807097,5.600504095778198,1.0,93.7280889264262,835
836,50.5,132.65671641791045,63.0354609929078,99.86516853932584,6.398848092152628,1.0,353.4561940422967,836
837,99.86516853932584,37.344537815126046,56.25316455696203,12.158686730506156,10.18098510882016,1.0,216.80254275074023,837
838,34.85490196078432,46.53403141361257,56.25316455696203,99.86516853932584,6.398848092152628,1.0,244.90611456283736,838
839,35.983805668016196,32.43795620437956,56.25316455696203,14.26645264847512,11.772185430463576,1.0,151.71356450829646,839
840,51.3757225433526,10.287037037037038,49.37777777777778,13.758513931888546,6.932917316692667,1.0,132.73196860674864,840
841,33.04089219330855,32.43795620437956,47.784946236559136,12.158686730506156,7.830837004405286,1.0,134.2533183691587,841
842,35.983805668016196,10.287037037037038,46.05181347150259,7.475189234650967,7.830837004405286,1.0,108.62868241561208,842
843,34.85490196078432,25.988304093567248,77.28695652173913,3.35522838807097,7.830837004405286,1.0,150.31622796856695,843
844,35.26984126984127,27.775,53.221556886227546,14.26645264847512,6.398848092152628,1.0,137.93169889669656,844
845,99.86516853932584,9.53648068669528,56.25316455696203,13.758513931888546,6.398848092152628,1.0,186.81217580702435,845
846,99.86516853932584,11.572916666666666,63.0354609929078,3.35522838807097,11.772185430463576,1.0,190.60096001743483,846
847,33.04089219330855,9.53648068669528,47.784946236559136,7.475189234650967,11.772185430463576,1.0,110.6096937816775,847
848,50.5,9.53648068669528,43.78325123152709,12.60709219858156,7.830837004405286,1.0,125.25766112120921,848
849,75.96581196581197,19.973033707865167,30.648275862068964,13.758513931888546,7.715277777777778,1.0,149.06091324541242,849
850,24.896358543417367,9.53648068669528,34.99212598425197,6.687735139202409,7.715277777777778,1.0,84.82797813134479,850
851,35.26984126984127,19.973033707865167,52.59171597633136,12.60709219858156,6.932917316692667,1.0,128.374600469312,851
852,24.896358543417367,19.973033707865167,63.0354609929078,7.475189234650967,10.18098510882016,1.0,126.56102758766147,852
853,34.85490196078432,21.314148681055155,42.32380952380952,25.837209302325583,10.18098510882016,1.0,135.51105457679475,853
854,34.583657587548636,17.91935483870968,33.16417910447761,13.758513931888546,11.772185430463576,1.0,112.19789089308804,854
855,25.03661971830986,25.988304093567248,30.648275862068964,3.35522838807097,6.398848092152628,1.0,92.42727615416968,855
856,99.86516853932584,9.248699271592091,51.976608187134495,14.26645264847512,7.715277777777778,1.0,184.0722064243053,856
857,24.896358543417367,10.287037037037038,44.0,12.158686730506156,6.932917316692667,1.0,99.27499962765323,857
858,31.5177304964539,99.86516853932584,47.784946236559136,3.35522838807097,7.830837004405286,1.0,191.35391066481512,858
859,25.467048710601716,52.59171597633136,404.0,12.60709219858156,6.398848092152628,1.0,502.0647049776672,859
860,42.73076923076923,10.287037037037038,46.05181347150259,21.011820330969268,11.772185430463576,1.0,132.8536255007417,860
861,40.58447488584475,10.287037037037038,153.24137931034483,12.60709219858156,10.18098510882016,1.0,227.90096854062833,861
862,35.983805668016196,26.06451612903226,404.0,3.35522838807097,7.715277777777778,1.0,478.1188279628972,862
863,34.85490196078432,10.287037037037038,46.05181347150259,7.475189234650967,7.830837004405286,1.0,107.4997787083802,863
864,24.896358543417367,33.04089219330855,48.568306010928964,7.475189234650967,5.600504095778198,1.0,120.58125007808404,864
865,42.73076923076923,37.344537815126046,46.05181347150259,14.26645264847512,6.398848092152628,1.0,147.7924212580256,865
866,32.7970479704797,33.53962264150943,53.221556886227546,13.758513931888546,5.600504095778198,1.0,139.91724552588343,866
867,45.3469387755102,20.863849765258216,51.976608187134495,3.35522838807097,12.51830985915493,1.0,135.06093497512882,867
868,99.86516853932584,11.572916666666666,44.0,13.758513931888546,6.932917316692667,1.0,177.12951645457375,868
869,34.583657587548636,20.863849765258216,49.37777777777778,12.60709219858156,7.830837004405286,1.0,126.26321433357147,869
870,34.583657587548636,52.59171597633136,67.8473282442748,3.35522838807097,5.600504095778198,1.0,164.97843429200398,870
871,45.3469387755102,19.973033707865167,99.86516853932584,12.158686730506156,7.715277777777778,1.0,186.05910553098514,871
872,35.83870967741936,20.863849765258216,125.1830985915493,12.158686730506156,7.830837004405286,1.0,202.87518176913832,872
873,25.03661971830986,26.06451612903226,46.05181347150259,7.475189234650967,6.932917316692667,1.0,112.56105587018835,873
874,33.04089219330855,17.91935483870968,72.260162601626,7.475189234650967,5.600504095778198,1.0,137.2961029640734,874
875,47.784946236559136,17.91935483870968,77.28695652173913,6.687735139202409,10.18098510882016,1.0,160.8599778450305,875
876,35.552,9.248699271592091,47.784946236559136,12.60709219858156,5.600504095778198,1.0,111.79324180251098,876
877,40.58447488584475,10.287037037037038,30.648275862068964,6.687735139202409,6.398848092152628,1.0,95.60637101630579,877
878,31.856630824372758,17.91935483870968,34.316602316602314,3.35522838807097,5.600504095778198,1.0,94.04832046353391,878
879,98.75555555555556,32.43795620437956,43.78325123152709,7.475189234650967,5.600504095778198,1.0,189.05245632189138,879
880,32.20289855072464,26.06451612903226,53.221556886227546,6.687735139202409,7.715277777777778,1.0,126.89198448296462,880
881,35.26984126984127,11.572916666666666,51.976608187134495,3.35522838807097,7.830837004405286,1.0,111.00543151611868,881
882,47.784946236559136,20.863849765258216,37.50210970464135,3.35522838807097,10.18098510882016,1.0,120.68711920334982,882
883,31.5177304964539,27.775,52.59171597633136,12.158686730506156,6.932917316692667,1.0,131.97605051998408,883
884,34.85490196078432,26.06451612903226,34.316602316602314,14.26645264847512,5.600504095778198,1.0,116.1029771506722,884
885,34.85490196078432,17.91935483870968,99.86516853932584,12.158686730506156,6.398848092152628,1.0,172.19696016147861,885
886,24.896358543417367,9.248699271592091,39.15418502202643,12.158686730506156,6.398848092152628,1.0,92.85677765969469,886
887,47.784946236559136,32.43795620437956,57.71428571428571,7.475189234650967,6.932917316692667,1.0,153.34529470656807,887
888,31.856630824372758,26.06451612903226,99.86516853932584,21.011820330969268,6.932917316692667,1.0,186.73105314039282,888
889,35.69477911646587,25.988304093567248,43.78325123152709,3.35522838807097,6.398848092152628,1.0,116.22041092178381,889
890,34.85490196078432,26.06451612903226,99.86516853932584,7.475189234650967,5.600504095778198,1.0,174.86027995957159,890
891,35.26984126984127,9.53648068669528,53.221556886227546,3.35522838807097,7.830837004405286,1.0,110.21394423524035,891
892,32.43795620437956,15.115646258503403,67.8473282442748,3.35522838807097,5.600504095778198,1.0,125.35666319100693,892
893,98.75555555555556,21.314148681055155,48.568306010928964,7.475189234650967,6.398848092152628,1.0,183.51204757434328,893
894,35.26984126984127,15.115646258503403,52.59171597633136,13.758513931888546,12.51830985915493,1.0,130.2540272957195,894
895,30.231292517006807,10.287037037037038,37.344537815126046,3.35522838807097,5.600504095778198,1.0,87.81859985301905,895
896,31.5177304964539,17.91935483870968,125.1830985915493,6.687735139202409,6.932917316692667,1.0,189.24083638260797,896
897,45.3469387755102,33.53962264150943,33.16417910447761,6.687735139202409,6.932917316692667,1.0,126.67139297739232,897
898,32.7970479704797,9.248699271592091,51.976608187134495,14.26645264847512,10.18098510882016,1.0,119.46979318650159,898
899,40.58447488584475,10.287037037037038,36.130081300813,3.35522838807097,5.600504095778198,1.0,96.95732570754394,899
900,42.526315789473685,11.572916666666666,43.78325123152709,25.837209302325583,10.18098510882016,1.0,134.9006780988132,900
901,99.86516853932584,27.775,49.37777777777778,6.687735139202409,6.932917316692667,1.0,191.6385987729987,901
902,34.85490196078432,21.314148681055155,44.663316582914575,3.35522838807097,5.600504095778198,1.0,110.78809970860321,902
903,25.03661971830986,19.973033707865167,202.0,6.687735139202409,6.932917316692667,1.0,261.6303058820701,903
904,51.08045977011494,9.53648068669528,63.0354609929078,6.687735139202409,6.932917316692667,1.0,138.2730539056131,904
905,33.04089219330855,99.86516853932584,56.25316455696203,3.35522838807097,11.772185430463576,1.0,205.28663910813094,905
906,98.75555555555556,11.572916666666666,37.344537815126046,12.60709219858156,7.715277777777778,1.0,168.9953800137076,906
907,167.69811320754715,9.53648068669528,51.976608187134495,14.26645264847512,6.932917316692667,1.0,251.41057204654473,907
908,202.0,9.53648068669528,42.32380952380952,3.35522838807097,12.51830985915493,1.0,270.73382845773074,908
909,45.3469387755102,9.248699271592091,44.0,7.475189234650967,10.18098510882016,1.0,117.25181239057343,909
910,32.20289855072464,37.344537815126046,77.28695652173913,3.35522838807097,5.600504095778198,1.0,156.790125371439,910
911,35.26984126984127,15.115646258503403,46.05181347150259,12.60709219858156,7.830837004405286,1.0,117.8752302028341,911
912,24.896358543417367,15.115646258503403,77.28695652173913,12.60709219858156,6.932917316692667,1.0,137.83897083893413,912
913,34.583657587548636,21.314148681055155,53.221556886227546,14.26645264847512,6.398848092152628,1.0,130.7846638954591,913
914,34.85490196078432,25.988304093567248,51.976608187134495,3.35522838807097,6.932917316692667,1.0,124.1079599462497,914
915,99.86516853932584,9.248699271592091,101.0,12.158686730506156,6.932917316692667,1.0,230.20547185811677,915
916,31.5177304964539,9.248699271592091,34.99212598425197,12.60709219858156,6.932917316692667,1.0,96.29856526757219,916
917,35.69477911646587,19.973033707865167,33.16417910447761,3.35522838807097,11.772185430463576,1.0,104.9594057473432,917
918,45.3469387755102,10.287037037037038,34.99212598425197,3.35522838807097,6.932917316692667,1.0,101.91424750156285,918
919,32.43795620437956,11.572916666666666,35.552,12.158686730506156,7.830837004405286,1.0,100.55239660595767,919
920,35.69477911646587,11.572916666666666,72.260162601626,6.687735139202409,6.932917316692667,1.0,134.1485108406536,920
921,99.86516853932584,10.287037037037038,42.32380952380952,3.35522838807097,10.18098510882016,1.0,167.0122285970635,921
922,32.43795620437956,9.53648068669528,99.86516853932584,21.011820330969268,6.932917316692667,1.0,170.78434307806262,922
923,31.5177304964539,46.53403141361257,50.21468926553672,21.011820330969268,5.600504095778198,1.0,155.87877560235066,923
924,31.5177304964539,37.344537815126046,77.28695652173913,6.687735139202409,6.398848092152628,1.0,160.2358080646741,924
925,32.7970479704797,9.53648068669528,51.976608187134495,7.475189234650967,6.932917316692667,1.0,109.71824339565312,925
926,31.5177304964539,20.863849765258216,99.86516853932584,7.475189234650967,11.772185430463576,1.0,172.49412346615247,926
927,25.03661971830986,21.314148681055155,50.21468926553672,3.35522838807097,7.715277777777778,1.0,108.63596383075048,927
928,48.83516483516484,9.53648068669528,33.16417910447761,21.011820330969268,5.600504095778198,1.0,119.14814905308519,928
929,31.076923076923077,34.316602316602314,167.69811320754715,6.687735139202409,11.772185430463576,1.0,252.5515591707385,929
930,31.076923076923077,34.316602316602314,46.05181347150259,3.35522838807097,5.600504095778198,1.0,121.40107134887715,930
931,25.467048710601716,34.316602316602314,53.221556886227546,7.475189234650967,5.600504095778198,1.0,127.08090124386074,931
932,24.896358543417367,10.287037037037038,51.674418604651166,3.35522838807097,12.51830985915493,1.0,103.73135243233146,932
933,31.5177304964539,20.863849765258216,44.663316582914575,7.475189234650967,10.18098510882016,1.0,115.70107118809781,933
934,42.73076923076923,9.248699271592091,48.83516483516484,3.35522838807097,12.51830985915493,1.0,117.68817158475207,934
935,42.73076923076923,26.06451612903226,43.78325123152709,7.475189234650967,10.18098510882016,1.0,131.23471093479972,935
936,40.58447488584475,10.287037037037038,42.32380952380952,7.475189234650967,7.830837004405286,1.0,109.50134768574756,936
937,51.08045977011494,33.04089219330855,34.316602316602314,25.837209302325583,5.600504095778198,1.0,150.8756676781296,937
938,24.896358543417367,9.248699271592091,99.86516853932584,7.475189234650967,7.830837004405286,1.0,150.31625259339154,938
939,98.75555555555556,15.115646258503403,56.25316455696203,7.475189234650967,12.51830985915493,1.0,191.11786546482688,939
940,99.86516853932584,9.248699271592091,42.32380952380952,13.758513931888546,7.830837004405286,1.0,174.0270282710213,940
941,33.04089219330855,32.43795620437956,47.784946236559136,14.26645264847512,11.772185430463576,1.0,140.30243271318594,941
942,35.69477911646587,10.287037037037038,39.15418502202643,7.475189234650967,6.398848092152628,1.0,100.01003850233295,942
943,35.69477911646587,20.863849765258216,82.2962962962963,14.26645264847512,7.715277777777778,1.0,161.83665560427326,943
944,101.0,19.973033707865167,99.86516853932584,3.35522838807097,10.18098510882016,1.0,235.37441574408214,944
945,30.231292517006807,9.248699271592091,33.16417910447761,14.26645264847512,5.600504095778198,1.0,93.51112763732982,945
946,34.583657587548636,9.53648068669528,36.130081300813,7.475189234650967,10.18098510882016,1.0,98.90639391852804,946
947,31.856630824372758,32.43795620437956,50.21468926553672,13.758513931888546,7.830837004405286,1.0,137.09862723058288,947
948,35.26984126984127,15.115646258503403,125.1830985915493,12.158686730506156,11.772185430463576,1.0,200.4994582808637,948
949,31.856630824372758,32.43795620437956,101.0,202.0,10.18098510882016,1.0,378.47557213757244,949
950,42.73076923076923,9.53648068669528,99.86516853932584,12.158686730506156,10.18098510882016,1.0,175.47209029611665,950
951,30.231292517006807,9.248699271592091,44.663316582914575,3.35522838807097,7.830837004405286,1.0,96.32937376398972,951
952,99.86516853932584,32.43795620437956,44.663316582914575,3.35522838807097,6.398848092152628,1.0,187.72051780684356,952
953,35.83870967741936,25.988304093567248,34.99212598425197,7.475189234650967,7.830837004405286,1.0,113.12516599429483,953
954,30.231292517006807,21.314148681055155,53.221556886227546,13.758513931888546,7.715277777777778,1.0,127.24078979395583,954
955,99.86516853932584,125.1830985915493,50.21468926553672,12.158686730506156,12.51830985915493,1.0,300.9399529860729,955
956,34.583657587548636,32.43795620437956,49.37777777777778,21.011820330969268,6.398848092152628,1.0,144.81005999282786,956
957,153.24137931034483,10.287037037037038,56.25316455696203,3.35522838807097,6.932917316692667,1.0,231.06972660910753,957
958,98.75555555555556,11.572916666666666,44.0,3.35522838807097,6.932917316692667,1.0,165.61661792698587,958
959,32.7970479704797,10.287037037037038,38.98245614035088,13.758513931888546,6.932917316692667,1.0,103.75797239644882,959
960,99.86516853932584,17.91935483870968,51.976608187134495,3.35522838807097,7.830837004405286,1.0,181.94719695764627,960
961,33.04089219330855,17.91935483870968,57.71428571428571,12.158686730506156,10.18098510882016,1.0,132.01420458563027,961
962,99.86516853932584,125.1830985915493,48.568306010928964,7.475189234650967,7.715277777777778,1.0,289.8070401542328,962
963,35.26984126984127,15.115646258503403,56.25316455696203,6.687735139202409,5.600504095778198,1.0,119.9268913202873,963
964,35.983805668016196,17.91935483870968,53.54216867469879,3.35522838807097,7.715277777777778,1.0,119.51583534727341,964
965,30.231292517006807,25.988304093567248,56.25316455696203,3.35522838807097,7.830837004405286,1.0,124.65882656001233,965
966,35.983805668016196,10.287037037037038,49.37777777777778,99.86516853932584,6.932917316692667,1.0,203.44670633884954,966
967,34.583657587548636,15.115646258503403,51.976608187134495,6.687735139202409,10.18098510882016,1.0,119.54463228120909,967
968,47.784946236559136,19.973033707865167,52.59171597633136,12.60709219858156,5.600504095778198,1.0,139.55729221511544,968
969,42.73076923076923,11.572916666666666,113.94871794871796,6.687735139202409,7.715277777777778,1.0,183.65541676313404,969
970,75.96581196581197,9.53648068669528,52.59171597633136,7.475189234650967,7.830837004405286,1.0,154.40003486789485,970
971,47.784946236559136,20.863849765258216,33.16417910447761,12.158686730506156,10.18098510882016,1.0,125.15264694562129,971
972,99.86516853932584,11.572916666666666,42.32380952380952,21.011820330969268,5.600504095778198,1.0,181.37421915654951,972
973,35.69477911646587,33.53962264150943,48.568306010928964,6.687735139202409,6.398848092152628,1.0,131.88929100025928,973
974,24.896358543417367,10.287037037037038,99.86516853932584,13.758513931888546,5.600504095778198,1.0,155.407582147447,974
975,48.83516483516484,9.53648068669528,52.904761904761905,6.687735139202409,10.18098510882016,1.0,129.14512767464458,975
976,32.43795620437956,9.53648068669528,34.316602316602314,13.758513931888546,5.600504095778198,1.0,96.6500572353439,976
977,32.7970479704797,9.53648068669528,39.15418502202643,3.35522838807097,12.51830985915493,1.0,98.36125192642731,977
978,32.43795620437956,11.572916666666666,48.568306010928964,3.35522838807097,7.715277777777778,1.0,104.64968504782394,978
979,45.3469387755102,25.988304093567248,113.94871794871796,6.687735139202409,7.830837004405286,1.0,200.80253296140307,979
980,32.20289855072464,26.06451612903226,56.25316455696203,3.35522838807097,5.600504095778198,1.0,124.47631172056809,980
981,31.076923076923077,33.04089219330855,77.28695652173913,12.60709219858156,6.398848092152628,1.0,161.41071208270495,981
982,99.86516853932584,20.863849765258216,67.8473282442748,25.837209302325583,6.932917316692667,1.0,222.34647316787712,982
983,31.5177304964539,10.287037037037038,37.344537815126046,7.475189234650967,11.772185430463576,1.0,99.39668001373154,983
984,99.86516853932584,17.91935483870968,30.648275862068964,14.26645264847512,10.18098510882016,1.0,173.88023699739975,984
985,31.076923076923077,15.115646258503403,99.86516853932584,12.158686730506156,6.398848092152628,1.0,165.61527269741111,985
986,42.73076923076923,21.314148681055155,67.8473282442748,21.011820330969268,11.772185430463576,1.0,165.67625191753203,986
987,30.231292517006807,34.316602316602314,51.674418604651166,6.687735139202409,5.600504095778198,1.0,129.51055267324088,987
988,35.26984126984127,9.248699271592091,34.99212598425197,12.60709219858156,6.398848092152628,1.0,99.51660681641953,988
989,32.7970479704797,9.248699271592091,33.16417910447761,14.26645264847512,7.715277777777778,1.0,98.1916567728023,989
990,31.856630824372758,11.572916666666666,51.976608187134495,3.35522838807097,12.51830985915493,1.0,112.27969392539981,990
991,30.231292517006807,125.1830985915493,47.784946236559136,12.158686730506156,6.398848092152628,1.0,222.75687216777405,991
992,167.69811320754715,125.1830985915493,87.13725490196077,12.158686730506156,10.18098510882016,1.0,403.3581385403835,992
993,167.69811320754715,10.287037037037038,37.344537815126046,14.26645264847512,7.715277777777778,1.0,238.31141848596312,993
994,35.552,15.115646258503403,51.976608187134495,3.35522838807097,6.398848092152628,1.0,113.3983309258615,994
995,35.552,21.314148681055155,72.260162601626,12.158686730506156,6.398848092152628,1.0,148.68384610533997,995
996,30.231292517006807,37.344537815126046,82.2962962962963,7.475189234650967,10.18098510882016,1.0,168.52830097190028,996
997,32.43795620437956,33.04089219330855,33.16417910447761,14.26645264847512,7.830837004405286,1.0,121.74031715504613,997
998,35.83870967741936,125.1830985915493,67.8473282442748,6.687735139202409,7.715277777777778,1.0,244.27214943022364,998
999,51.08045977011494,33.53962264150943,37.50210970464135,12.158686730506156,6.932917316692667,1.0,142.21379616346456,999
1000,101.0,10.287037037037038,44.663316582914575,7.475189234650967,12.51830985915493,1.0,176.9438527137575,1000
1001,35.983805668016196,9.53648068669528,34.99212598425197,7.475189234650967,10.18098510882016,1.0,99.16858668243458,1001
1002,75.96581196581197,11.572916666666666,44.663316582914575,3.35522838807097,6.398848092152628,1.0,142.95612169561682,1002
1003,32.43795620437956,11.572916666666666,47.784946236559136,12.60709219858156,6.398848092152628,1.0,111.80175939833954,1003
1004,25.03661971830986,125.1830985915493,99.86516853932584,3.35522838807097,5.600504095778198,1.0,260.04061933303416,1004
1005,50.5,52.59171597633136,36.130081300813,12.158686730506156,7.715277777777778,1.0,160.0957617854283,1005
1006,34.583657587548636,27.775,47.784946236559136,3.35522838807097,7.830837004405286,1.0,122.32966921658402,1006
