,Head information value,Face information value,Body information value,Skin information value,Background information value,Trait count information value,Unique Trait count,Token Id,Rarity score
0,5.57848429028106,3.2092504806153417,5.777793098504468,4.393129248269142,2.793462554770351,0.0,0,0,0.5095640896021953
1,6.641909670422694,4.795715006501729,6.272153050444717,2.9021101016434363,2.94771809994678,0.0,0,1,0.5519061740813698
2,5.674699605540364,3.2534569567348117,5.691378346686994,1.7464109730194697,2.48555668855391,0.0,0,2,0.44161437550194815
3,5.674699605540364,3.3627555992256237,5.100834813702538,3.656163654102936,2.48555668855391,0.0,0,3,0.4750785290080456
4,5.112018552195214,4.70401517236492,6.362755599225624,3.656163654102936,3.5573102671766508,0.0,0,4,0.5479860125681872
5,5.410283969308209,4.163446791002217,5.742603670042167,1.7464109730194697,2.793462554770351,0.0,0,5,0.46515055468190003
6,5.658211482751795,4.795715006501729,5.725325678610332,3.656163654102936,2.9691665192108148,0.0,0,6,0.5342190285098216
7,4.67055987517944,4.163446791002217,5.4523071842039155,1.7464109730194697,2.94771809994678,0.0,0,7,0.44463492588900105
8,6.641909670422694,6.96789598188441,5.699790586503194,2.9021101016434363,2.6778122174076993,0.0,0,8,0.58306064216089
9,5.609848461190396,4.413739527944428,5.813862353211989,3.782252746695167,2.94771809994678,0.0,0,9,0.5286633029794388
10,5.140363177889176,3.2092504806153417,5.73393880891504,3.782252746695167,2.48555668855391,0.0,0,10,0.47675000672404366
11,4.993521789559904,3.917970756552728,6.084220099851642,1.7464109730194697,3.6459678869970475,0.0,0,11,0.47761043261149966
12,5.342856041787918,5.019611018428566,5.100834813702538,2.9021101016434363,2.94771809994678,0.0,0,12,0.49928034081478595
13,5.123289664530234,3.2534569567348117,5.699790586503194,2.7415177121129175,2.48555668855391,0.0,0,13,0.45220545967063625
14,5.140363177889176,4.319981575535332,5.1289584146169265,3.656163654102936,2.793462554770351,0.0,0,14,0.49285692868522557
15,4.993521789559904,3.2092504806153417,5.100834813702538,1.7464109730194697,3.6459678869970475,0.0,0,15,0.4379712506264973
16,5.57848429028106,3.532680600667936,6.362755599225624,1.7464109730194697,2.48555668855391,0.0,0,16,0.46162917026290956
17,5.609848461190396,4.699790586503194,5.725325678610332,1.7464109730194697,2.793462554770351,0.0,0,17,0.48198515278228427
18,5.157641169321011,3.3627555992256237,6.445217759417596,2.7415177121129175,2.9691665192108148,0.0,0,18,0.48436196160544354
19,5.683014873752367,4.699790586503194,5.284753087224351,3.782252746695167,2.94771809994678,0.0,0,19,0.5246834261175107
20,5.609848461190396,3.2092504806153417,6.641909670422694,3.83455474836509,2.9691665192108148,0.0,0,20,0.5215724712022268
21,4.645967886997048,4.413739527944428,4.9377340113741575,3.782252746695167,3.5573102671766508,0.0,0,21,0.4998396205119042
22,4.978091748990298,4.699790586503194,5.73393880891504,3.83455474836509,2.6778122174076993,0.0,0,22,0.5135949563934366
23,6.641909670422694,3.532680600667936,5.100834813702538,1.7464109730194697,2.48555668855391,0.0,0,23,0.456979226622632
24,4.9179707565527275,3.3627555992256237,5.525186064121011,1.7464109730194697,3.347805257759652,0.0,0,24,0.4427534876727198
25,5.009118644610923,3.2092504806153417,5.222825338081148,7.658211482751795,2.6778122174076993,0.0,0,25,0.5570039476240388
26,5.410283969308209,3.2092504806153417,5.691378346686994,2.9021101016434363,2.94771809994678,0.0,0,26,0.47228453075632054
27,5.410283969308209,3.2092504806153417,6.272153050444717,4.691378346686994,2.94771809994678,0.0,0,27,0.5278050407438667
28,4.637862837359992,4.70401517236492,5.1289584146169265,4.393129248269142,2.9691665192108148,0.0,0,28,0.5114618849116466
29,6.641909670422694,6.641909670422694,5.57848429028106,3.6039155054366545,2.793462554770351,0.0,0,29,0.5917320655877731
30,5.123289664530234,3.2092504806153417,5.699790586503194,3.656163654102936,2.9691665192108148,0.0,0,30,0.4839253521432625
31,4.9179707565527275,5.540214273353343,5.291094614098177,3.6039155054366545,3.5573102671766508,0.0,0,31,0.5367003772848931
32,4.67055987517944,5.222825338081148,5.228899852490833,1.7464109730194697,3.6459678869970475,0.0,0,32,0.48057551191543985
33,5.169275869804414,5.222825338081148,5.222825338081148,3.83455474836509,3.347805257759652,0.0,0,33,0.5340481177121797
34,4.637862837359992,3.2534569567348117,5.4523071842039155,2.9021101016434363,2.6778122174076993,0.0,0,34,0.44330213859404183
35,5.674699605540364,5.046180738832468,5.725325678610332,4.393129248269142,2.793462554770351,0.0,0,35,0.5536207638756034
36,4.978091748990298,3.532680600667936,5.4033975837229695,2.9021101016434363,2.9691665192108148,0.0,0,36,0.46349290150125366
37,4.637862837359992,3.917970756552728,5.73393880891504,6.641909670422694,2.793462554770351,0.0,0,37,0.555784075534259
38,5.609848461190396,3.2534569567348117,5.525186064121011,1.7464109730194697,2.9691665192108148,0.0,0,38,0.44753098370034
39,5.169275869804414,5.067794551938531,5.525186064121011,3.6039155054366545,2.793462554770351,0.0,0,39,0.5191105130638144
40,4.637862837359992,3.3627555992256237,4.9377340113741575,2.9021101016434363,3.5573102671766508,0.0,0,40,0.45441127552346317
41,5.140363177889176,5.222825338081148,5.4033975837229695,1.7464109730194697,2.94771809994678,0.0,0,41,0.47931171106858805
42,5.009118644610923,3.3627555992256237,5.609848461190396,1.7464109730194697,2.48555668855391,0.0,0,42,0.4266730180650819
43,5.674699605540364,4.382933481163254,5.777793098504468,3.656163654102936,2.48555668855391,0.0,0,43,0.5148355576911533
44,5.123289664530234,5.019611018428566,5.650037551306094,3.656163654102936,2.94771809994678,0.0,0,44,0.5246668076118307
45,5.502933257273884,4.319981575535332,5.1289584146169265,3.782252746695167,2.48555668855391,0.0,0,45,0.4970912467691377
46,5.683014873752367,3.2092504806153417,5.1289584146169265,1.7464109730194697,2.94771809994678,0.0,0,46,0.43842493863140125
47,5.123289664530234,3.2534569567348117,5.525186064121011,2.9021101016434363,2.48555668855391,0.0,0,47,0.45187721213304166
48,5.417203383248,5.046180738832468,5.05155391093132,2.9021101016434363,2.793462554770351,0.0,0,48,0.49687638410469526
49,5.123289664530234,4.413739527944428,5.609848461190396,1.7464109730194697,2.6778122174076993,0.0,0,49,0.4584716493982848
50,5.03549406003522,6.96789598188441,5.100834813702538,3.83455474836509,2.6778122174076993,0.0,0,50,0.5532411228052821
51,5.009118644610923,5.222825338081148,5.525186064121011,1.7464109730194697,2.48555668855391,0.0,0,51,0.46826362345957717
52,5.019611018428566,3.917970756552728,6.641909670422694,3.83455474836509,2.48555668855391,0.0,0,52,0.5130190240502926
53,5.123289664530234,4.382933481163254,7.389722646825892,2.9021101016434363,3.347805257759652,0.0,0,53,0.5422138092078176
54,5.342856041787918,7.05155391093132,5.459431618637297,2.9021101016434363,2.793462554770351,0.0,0,54,0.5516674237887044
55,5.658211482751795,3.3627555992256237,4.9377340113741575,1.7464109730194697,2.793462554770351,0.0,0,55,0.4333467026527566
56,5.140363177889176,4.163446791002217,5.699790586503194,3.6039155054366545,2.48555668855391,0.0,0,56,0.4941252886757162
57,6.641909670422694,3.2092504806153417,5.691378346686994,3.83455474836509,3.5573102671766508,0.0,0,57,0.5372602129260013
58,4.978091748990298,4.319981575535332,6.641909670422694,1.7464109730194697,2.48555668855391,0.0,0,58,0.4725471276628785
59,4.957771764610703,3.917970756552728,4.9377340113741575,4.691378346686994,2.6778122174076993,0.0,0,59,0.49622412146424344
60,5.112018552195214,4.795715006501729,5.481018480845443,4.393129248269142,3.347805257759652,0.0,0,60,0.541834903671981
61,4.67055987517944,3.2092504806153417,5.151858816727005,1.7464109730194697,2.793462554770351,0.0,0,61,0.41163009829955843
62,4.645967886997048,7.05155391093132,5.57848429028106,4.691378346686994,2.793462554770351,0.0,0,62,0.5800463883092127
63,5.683014873752367,5.222825338081148,5.4033975837229695,3.6039155054366545,2.793462554770351,0.0,0,63,0.5319240704228255
64,5.123289664530234,3.3627555992256237,4.9377340113741575,3.782252746695167,2.9691665192108148,0.0,0,64,0.4726232124463655
65,5.502933257273884,3.3627555992256237,5.777793098504468,1.7464109730194697,2.9691665192108148,0.0,0,65,0.4535043780254262
66,5.140363177889176,4.382933481163254,5.609848461190396,1.7464109730194697,2.48555668855391,0.0,0,66,0.4536461831447321
67,6.641909670422694,4.699790586503194,6.084220099851642,3.782252746695167,2.94771809994678,0.0,0,67,0.5658747237031537
68,5.151858816727005,3.532680600667936,5.716763665106908,1.7464109730194697,2.6778122174076993,0.0,0,68,0.44100585602704473
69,5.151858816727005,5.067794551938531,5.742603670042167,2.7415177121129175,2.48555668855391,0.0,0,69,0.4963802400307735
70,5.009118644610923,3.2534569567348117,5.175128596049852,2.7415177121129175,2.48555668855391,0.0,0,70,0.4372401888721858
71,6.641909670422694,3.2092504806153417,5.691378346686994,1.7464109730194697,3.347805257759652,0.0,0,71,0.48343560507794225
72,6.625790005059417,4.699790586503194,5.1289584146169265,1.7464109730194697,2.9691665192108148,0.0,0,72,0.495930111765258
73,5.123289664530234,3.2534569567348117,5.291094614098177,1.7464109730194697,2.6778122174076993,0.0,0,73,0.4238238147352866
74,6.625790005059417,4.413739527944428,5.291094614098177,2.7415177121129175,2.793462554770351,0.0,0,74,0.5122225775969238
75,6.641909670422694,5.222825338081148,5.699790586503194,2.9021101016434363,2.6778122174076993,0.0,0,75,0.5421807027668566
76,4.645967886997048,4.163446791002217,6.272153050444717,2.7415177121129175,3.347805257759652,0.0,0,76,0.4959482481343376
77,4.957771764610703,3.532680600667936,5.57848429028106,8.658211482751796,2.6778122174076993,0.0,0,77,0.5951353564610823
78,6.625790005059417,5.540214273353343,5.4523071842039155,6.641909670422694,2.48555668855391,0.0,0,78,0.6265452807171766
79,5.112018552195214,4.795715006501729,5.625790005059417,2.7415177121129175,2.48555668855391,0.0,0,79,0.4863367506543169
80,5.140363177889176,3.532680600667936,5.4523071842039155,7.658211482751795,2.793462554770351,0.0,0,80,0.57574018339311
81,5.151858816727005,3.3627555992256237,5.222825338081148,4.691378346686994,2.48555668855391,0.0,0,81,0.4899391190182905
82,4.993521789559904,3.2534569567348117,5.73393880891504,1.7464109730194697,2.793462554770351,0.0,0,82,0.43386714439964935
83,4.67055987517944,4.382933481163254,4.9377340113741575,1.7464109730194697,2.9691665192108148,0.0,0,83,0.43822469402382885
84,5.169275869804414,4.382933481163254,4.9377340113741575,3.656163654102936,2.6778122174076993,0.0,0,84,0.4878201116092525
85,8.658211482751796,4.163446791002217,5.691378346686994,1.7464109730194697,2.48555668855391,0.0,0,85,0.5328233558151628
86,4.957771764610703,3.3627555992256237,5.625790005059417,4.393129248269142,3.347805257759652,0.0,0,86,0.5080444997560836
87,6.625790005059417,3.3627555992256237,5.100834813702538,1.7464109730194697,3.6459678869970475,0.0,0,87,0.47980468924923747
88,5.046180738832468,4.319981575535332,5.05155391093132,2.9021101016434363,2.94771809994678,0.0,0,88,0.4747865026434575
89,7.625790005059417,3.3627555992256237,5.291094614098177,2.9021101016434363,2.94771809994678,0.0,0,89,0.5184038428719807
90,5.57848429028106,5.019611018428566,6.832240882526844,3.656163654102936,2.94771809994678,0.0,0,90,0.5630244119200599
91,6.625790005059417,3.532680600667936,7.163446791002217,2.9021101016434363,2.793462554770351,0.0,0,91,0.5392065941379459
92,5.009118644610923,4.163446791002217,5.4523071842039155,3.6039155054366545,2.9691665192108148,0.0,0,92,0.4965822468106785
93,4.645967886997048,5.222825338081148,6.988360084444126,2.7415177121129175,2.6778122174076993,0.0,0,93,0.5218478048198407
94,5.169275869804414,3.2534569567348117,6.641909670422694,2.9021101016434363,2.94771809994678,0.0,0,94,0.48994136578432473
95,4.993521789559904,3.532680600667936,5.228899852490833,2.7415177121129175,2.6778122174076993,0.0,0,95,0.4491793085280501
96,7.389722646825892,4.163446791002217,7.658211482751795,3.656163654102936,3.347805257759652,0.0,0,96,0.6141195006340708
97,4.67055987517944,4.319981575535332,6.175128596049852,3.656163654102936,3.6459678869970475,0.0,0,97,0.5263296190848215
98,5.157641169321011,3.2092504806153417,5.73393880891504,1.7464109730194697,3.347805257759652,0.0,0,98,0.4496622232023546
99,5.674699605540364,4.795715006501729,5.228899852490833,2.9021101016434363,2.9691665192108148,0.0,0,99,0.5053116098167092
100,6.641909670422694,5.100834813702538,5.699790586503194,2.7415177121129175,2.94771809994678,0.0,0,100,0.5418837312511507
101,5.342856041787918,4.163446791002217,5.100834813702538,3.782252746695167,3.5573102671766508,0.0,0,101,0.5141223342909222
102,5.163446791002217,4.382933481163254,5.725325678610332,3.656163654102936,2.793462554770351,0.0,0,102,0.5088428628361217
103,5.151858816727005,3.2534569567348117,6.641909670422694,1.7464109730194697,3.6459678869970475,0.0,0,103,0.4788171688914744
104,5.046180738832468,7.05155391093132,5.222825338081148,2.9021101016434363,2.48555668855391,0.0,0,104,0.531961807809194
105,4.9179707565527275,3.2092504806153417,6.272153050444717,3.656163654102936,2.793462554770351,0.0,0,105,0.48840766403873653
106,5.123289664530234,3.3627555992256237,5.625790005059417,1.7464109730194697,2.94771809994678,0.0,0,106,0.44054759918650976
107,4.645967886997048,3.2092504806153417,5.525186064121011,1.7464109730194697,2.6778122174076993,0.0,0,107,0.41709033425773256
108,5.609848461190396,4.795715006501729,5.05155391093132,2.7415177121129175,2.6778122174076993,0.0,0,108,0.48905063170375473
109,5.169275869804414,3.532680600667936,5.777793098504468,7.658211482751795,3.347805257759652,0.0,0,109,0.59702831277462
110,6.641909670422694,5.067794551938531,5.525186064121011,1.7464109730194697,2.9691665192108148,0.0,0,110,0.514210582620756
111,5.151858816727005,4.699790586503194,5.151858816727005,2.7415177121129175,2.48555668855391,0.0,0,111,0.47392063718099897
112,5.609848461190396,4.70401517236492,6.641909670422694,3.6039155054366545,3.6459678869970475,0.0,0,112,0.5670405277035023
113,5.674699605540364,3.2534569567348117,5.73393880891504,2.7415177121129175,2.48555668855391,0.0,0,113,0.4659227165148644
114,5.57848429028106,4.795715006501729,6.362755599225624,3.656163654102936,3.347805257759652,0.0,0,114,0.5561537178282568
115,5.019611018428566,7.05155391093132,6.869715587945507,3.656163654102936,2.9691665192108148,0.0,0,115,0.5989127989052523
116,5.112018552195214,3.917970756552728,5.625790005059417,2.7415177121129175,2.48555668855391,0.0,0,116,0.46577475686409764
117,5.683014873752367,3.532680600667936,6.869715587945507,4.393129248269142,2.793462554770351,0.0,0,117,0.5451687988069774
118,4.645967886997048,8.658211482751796,5.525186064121011,1.7464109730194697,2.793462554770351,0.0,0,118,0.5474466468333059
119,5.140363177889176,3.917970756552728,5.625790005059417,1.7464109730194697,2.48555668855391,0.0,0,119,0.44312743496652396
120,4.645967886997048,5.019611018428566,6.641909670422694,4.393129248269142,3.5573102671766508,0.0,0,120,0.5682650348387416
121,6.641909670422694,3.532680600667936,5.716763665106908,3.782252746695167,3.6459678869970475,0.0,0,121,0.5462832112252373
122,4.957771764610703,4.795715006501729,5.57848429028106,3.83455474836509,2.9691665192108148,0.0,0,122,0.5185496438591514
123,5.019611018428566,5.067794551938531,5.222825338081148,2.9021101016434363,3.6459678869970475,0.0,0,123,0.5120516731755822
124,5.140363177889176,4.413739527944428,6.084220099851642,2.9021101016434363,2.94771809994678,0.0,0,124,0.503380372586392
125,5.03549406003522,4.413739527944428,5.151858816727005,1.7464109730194697,2.6778122174076993,0.0,0,125,0.4456861108994248
126,5.112018552195214,4.319981575535332,5.650037551306094,3.6039155054366545,2.94771809994678,0.0,0,126,0.5067893234683515
127,4.993521789559904,3.3627555992256237,6.641909670422694,3.656163654102936,3.347805257759652,0.0,0,127,0.5154214276822425
128,5.123289664530234,3.532680600667936,6.641909670422694,4.691378346686994,2.9691665192108148,0.0,0,128,0.5378229344475578
129,4.993521789559904,4.163446791002217,8.658211482751796,1.7464109730194697,2.9691665192108148,0.0,0,129,0.5278044224988686
130,5.658211482751795,3.2534569567348117,5.691378346686994,4.393129248269142,2.48555668855391,0.0,0,130,0.5032300181733697
131,5.57848429028106,3.532680600667936,4.9377340113741575,1.7464109730194697,2.94771809994678,0.0,0,131,0.43907325494891986
132,5.410283969308209,4.319981575535332,4.9377340113741575,4.393129248269142,2.9691665192108148,0.0,0,132,0.5160806187780629
133,5.157641169321011,4.163446791002217,5.175128596049852,1.7464109730194697,3.347805257759652,0.0,0,133,0.458924518549151
134,5.609848461190396,3.917970756552728,5.459431618637297,2.7415177121129175,2.94771809994678,0.0,0,134,0.4843663630875154
135,5.658211482751795,3.917970756552728,5.291094614098177,2.7415177121129175,3.6459678869970475,0.0,0,135,0.4979130237384563
136,5.410283969308209,3.2534569567348117,6.641909670422694,3.782252746695167,2.94771809994678,0.0,0,136,0.5162053881903842
137,5.140363177889176,5.540214273353343,5.777793098504468,3.83455474836509,3.5573102671766508,0.0,0,137,0.5587144497012959
138,4.9179707565527275,3.3627555992256237,4.9377340113741575,3.656163654102936,3.5573102671766508,0.0,0,138,0.4786374914849266
139,5.163446791002217,3.2092504806153417,5.222825338081148,1.7464109730194697,2.94771809994678,0.0,0,139,0.42845248413314063
140,6.247278381805687,5.540214273353343,6.641909670422694,3.782252746695167,3.6459678869970475,0.0,0,140,0.6057394084316854
141,5.342856041787918,3.2534569567348117,5.850856560694191,1.7464109730194697,3.6459678869970475,0.0,0,141,0.46476028913972856
142,6.247278381805687,5.716763665106908,5.525186064121011,3.782252746695167,2.48555668855391,0.0,0,142,0.5565311974747227
143,7.25966210626152,3.2092504806153417,5.742603670042167,3.6039155054366545,2.9691665192108148,0.0,0,143,0.5337508829085819
144,5.123289664530234,5.067794551938531,5.650037551306094,3.83455474836509,2.6778122174076993,0.0,0,144,0.5236517317608724
145,5.342856041787918,4.163446791002217,5.459431618637297,2.9021101016434363,2.48555668855391,0.0,0,145,0.47679778017850355
146,4.9179707565527275,3.917970756552728,4.9377340113741575,3.656163654102936,3.6459678869970475,0.0,0,146,0.49372082361289826
147,4.957771764610703,4.413739527944428,5.716763665106908,4.393129248269142,3.5573102671766508,0.0,0,147,0.5397037963600463
148,5.683014873752367,6.96789598188441,5.625790005059417,2.7415177121129175,2.48555668855391,0.0,0,148,0.5505982875979364
149,4.993521789559904,4.413739527944428,5.609848461190396,1.7464109730194697,2.6778122174076993,0.0,0,149,0.4554317135177992
150,6.641909670422694,3.2534569567348117,5.284753087224351,1.7464109730194697,3.347805257759652,0.0,0,150,0.4749456004177076
151,5.112018552195214,3.532680600667936,5.481018480845443,2.9021101016434363,2.793462554770351,0.0,0,151,0.4643325751018133
152,5.019611018428566,5.100834813702538,5.601943263105049,3.6039155054366545,2.6778122174076993,0.0,0,152,0.5154673623882109
153,4.637862837359992,4.382933481163254,5.151858816727005,1.7464109730194697,3.6459678869970475,0.0,0,153,0.4583295276949726
154,6.641909670422694,4.319981575535332,5.284753087224351,1.7464109730194697,2.94771809994678,0.0,0,154,0.4905575317236588
155,6.658211482751795,3.2534569567348117,6.641909670422694,3.782252746695167,2.48555668855391,0.0,0,155,0.5346127063948274
156,5.502933257273884,3.2092504806153417,5.151858816727005,2.7415177121129175,2.6778122174076993,0.0,0,156,0.4517313389365344
157,4.637862837359992,3.532680600667936,4.9377340113741575,3.83455474836509,2.793462554770351,0.0,0,157,0.46234147380309476
158,5.03549406003522,4.163446791002217,5.291094614098177,2.7415177121129175,2.48555668855391,0.0,0,158,0.46189204958648983
159,4.637862837359992,3.532680600667936,6.832240882526844,2.9021101016434363,2.48555668855391,0.0,0,159,0.4776657085972531
160,4.9179707565527275,3.917970756552728,5.601943263105049,2.9021101016434363,2.94771809994678,0.0,0,160,0.4752589701288574
161,5.019611018428566,4.319981575535332,5.601943263105049,7.658211482751795,2.793462554770351,0.0,0,161,0.5948600907344628
162,4.67055987517944,5.100834813702538,6.084220099851642,2.7415177121129175,2.48555668855391,0.0,0,162,0.4938820439083045
163,5.123289664530234,3.3627555992256237,5.609848461190396,1.7464109730194697,3.347805257759652,0.0,0,163,0.4495465755157906
164,6.641909670422694,3.2534569567348117,5.100834813702538,4.393129248269142,2.9691665192108148,0.0,0,164,0.5237690600459451
165,5.112018552195214,5.046180738832468,5.1289584146169265,1.7464109730194697,2.94771809994678,0.0,0,165,0.4680806450013861
166,5.157641169321011,4.382933481163254,5.57848429028106,3.782252746695167,2.48555668855391,0.0,0,166,0.5010077306292753
167,4.9179707565527275,5.067794551938531,5.650037551306094,1.7464109730194697,2.793462554770351,0.0,0,167,0.472634406456259
168,5.046180738832468,3.2092504806153417,6.272153050444717,2.9021101016434363,2.48555668855391,0.0,0,168,0.46653369549503493
169,5.019611018428566,4.382933481163254,5.222825338081148,3.782252746695167,2.48555668855391,0.0,0,169,0.48944259389078476
170,5.140363177889176,3.3627555992256237,5.777793098504468,3.782252746695167,3.347805257759652,0.0,0,170,0.5015723312824143
171,5.046180738832468,3.532680600667936,5.609848461190396,1.7464109730194697,2.793462554770351,0.0,0,171,0.4387348753605588
172,7.389722646825892,4.699790586503194,6.641909670422694,3.6039155054366545,3.6459678869970475,0.0,0,172,0.6086368082217455
173,4.637862837359992,3.3627555992256237,7.658211482751795,1.7464109730194697,2.9691665192108148,0.0,0,173,0.4772898696862931
174,4.978091748990298,5.046180738832468,5.601943263105049,1.7464109730194697,2.9691665192108148,0.0,0,174,0.47652585177521
175,4.978091748990298,3.2092504806153417,5.691378346686994,4.393129248269142,2.48555668855391,0.0,0,175,0.48626198787236713
176,6.641909670422694,4.382933481163254,5.716763665106908,1.7464109730194697,2.94771809994678,0.0,0,176,0.5021524986094291
177,6.641909670422694,3.2534569567348117,5.459431618637297,2.7415177121129175,2.6778122174076993,0.0,0,177,0.4866537087117039
178,4.957771764610703,4.699790586503194,6.272153050444717,1.7464109730194697,2.6778122174076993,0.0,0,178,0.47681036812173044
179,5.140363177889176,3.532680600667936,5.978091748990298,1.7464109730194697,2.6778122174076993,0.0,0,179,0.4468584186430011
180,5.019611018428566,4.382933481163254,5.1289584146169265,1.7464109730194697,3.5573102671766508,0.0,0,180,0.4646589891237415
181,4.978091748990298,4.163446791002217,7.163446791002217,4.691378346686994,2.793462554770351,0.0,0,181,0.5572993036302956
182,7.389722646825892,4.795715006501729,6.175128596049852,4.393129248269142,3.347805257759652,0.0,0,182,0.6114524777339754
183,7.658211482751795,3.2092504806153417,5.05155391093132,2.9021101016434363,2.94771809994678,0.0,0,183,0.5099558746578869
184,5.151858816727005,5.222825338081148,5.716763665106908,1.7464109730194697,2.6778122174076993,0.0,0,184,0.48059910382933047
185,6.641909670422694,5.019611018428566,7.163446791002217,3.656163654102936,2.6778122174076993,0.0,0,185,0.5893721741717862
186,5.151858816727005,3.532680600667936,6.362755599225624,1.7464109730194697,2.9691665192108148,0.0,0,186,0.46296408302019226
187,4.637862837359992,6.641909670422694,5.175128596049852,6.641909670422694,2.48555668855391,0.0,0,187,0.5992912866589005
188,4.957771764610703,5.067794551938531,5.481018480845443,2.7415177121129175,2.48555668855391,0.0,0,188,0.4857056844335159
189,5.157641169321011,3.2092504806153417,5.100834813702538,2.9021101016434363,2.6778122174076993,0.0,0,189,0.4462092870567999
190,5.674699605540364,5.046180738832468,5.650037551306094,2.7415177121129175,2.6778122174076993,0.0,0,190,0.5104572778404689
191,6.641909670422694,3.2534569567348117,6.869715587945507,2.7415177121129175,2.48555668855391,0.0,0,191,0.515187183274926
192,4.957771764610703,4.795715006501729,5.481018480845443,2.9021101016434363,2.48555668855391,0.0,0,192,0.48309399178207746
193,4.978091748990298,3.2534569567348117,5.609848461190396,2.9021101016434363,3.347805257759652,0.0,0,193,0.4706581027759738
194,4.993521789559904,4.413739527944428,6.084220099851642,3.782252746695167,2.6778122174076993,0.0,0,194,0.5142358499158403
195,5.609848461190396,4.699790586503194,5.4033975837229695,2.7415177121129175,2.9691665192108148,0.0,0,195,0.5018710351775602
196,4.9179707565527275,3.2092504806153417,5.175128596049852,4.393129248269142,2.793462554770351,0.0,0,196,0.47997294282174735
197,4.637862837359992,4.699790586503194,5.291094614098177,2.9021101016434363,2.94771809994678,0.0,0,197,0.47973012354641636
198,4.9179707565527275,3.532680600667936,5.699790586503194,3.656163654102936,3.347805257759652,0.0,0,198,0.4955621921460473
199,5.502933257273884,4.699790586503194,5.459431618637297,2.7415177121129175,2.9691665192108148,0.0,0,199,0.5006790954056701
200,5.683014873752367,3.532680600667936,6.641909670422694,2.7415177121129175,3.347805257759652,0.0,0,200,0.5141276626254054
201,5.140363177889176,5.046180738832468,5.525186064121011,1.7464109730194697,3.347805257759652,0.0,0,201,0.4873990764711467
202,5.609848461190396,3.532680600667936,5.699790586503194,2.7415177121129175,2.9691665192108148,0.0,0,202,0.4814736617972659
203,6.658211482751795,3.2092504806153417,5.4033975837229695,1.7464109730194697,2.48555668855391,0.0,0,203,0.4568722745601095
204,4.993521789559904,3.2534569567348117,5.813862353211989,3.782252746695167,3.6459678869970475,0.0,0,204,0.5034017072072497
205,5.03549406003522,4.70401517236492,5.525186064121011,1.7464109730194697,2.48555668855391,0.0,0,205,0.45672787112832675
206,5.502933257273884,3.532680600667936,5.609848461190396,2.7415177121129175,2.6778122174076993,0.0,0,206,0.4700368400508576
207,4.978091748990298,4.795715006501729,5.813862353211989,3.6039155054366545,2.94771809994678,0.0,0,207,0.5186342205640195
208,6.625790005059417,3.2092504806153417,5.625790005059417,2.7415177121129175,2.6778122174076993,0.0,0,208,0.4891376148861198
209,5.502933257273884,4.382933481163254,7.163446791002217,2.9021101016434363,3.347805257759652,0.0,0,209,0.5458065942979525
210,5.658211482751795,3.917970756552728,5.4033975837229695,1.7464109730194697,2.48555668855391,0.0,0,210,0.4500487700167984
211,4.67055987517944,3.532680600667936,5.73393880891504,3.83455474836509,2.9691665192108148,0.0,0,211,0.48587532004398154
212,5.019611018428566,4.70401517236492,5.228899852490833,2.7415177121129175,2.6778122174076993,0.0,0,212,0.47723009980685605
213,6.641909670422694,3.532680600667936,5.222825338081148,3.6039155054366545,2.6778122174076993,0.0,0,213,0.5078545494272261
214,4.993521789559904,4.319981575535332,5.777793098504468,1.7464109730194697,3.347805257759652,0.0,0,214,0.47286483129718554
215,5.410283969308209,5.100834813702538,5.625790005059417,3.6039155054366545,3.347805257759652,0.0,0,215,0.5408731045351737
216,7.389722646825892,3.532680600667936,5.175128596049852,1.7464109730194697,2.793462554770351,0.0,0,216,0.48345084700498137
217,5.163446791002217,8.658211482751796,5.151858816727005,1.7464109730194697,3.5573102671766508,0.0,0,217,0.5687173955603352
218,5.674699605540364,3.3627555992256237,5.05155391093132,2.9021101016434363,2.48555668855391,0.0,0,218,0.4562596554228493
219,5.03549406003522,3.3627555992256237,5.05155391093132,1.7464109730194697,2.48555668855391,0.0,0,219,0.4142123064762483
220,6.658211482751795,3.532680600667936,5.716763665106908,1.7464109730194697,3.347805257759652,0.0,0,220,0.49198882390463433
221,5.123289664530234,5.019611018428566,5.57848429028106,3.83455474836509,2.793462554770351,0.0,0,221,0.5235560026153877
222,5.502933257273884,5.100834813702538,5.978091748990298,1.7464109730194697,3.6459678869970475,0.0,0,222,0.5147674385891601
223,4.637862837359992,3.532680600667936,5.813862353211989,4.691378346686994,3.5573102671766508,0.0,0,223,0.5208313801220109
224,4.637862837359992,3.532680600667936,5.978091748990298,1.7464109730194697,2.94771809994678,0.0,0,224,0.44140967226715216
225,5.112018552195214,3.3627555992256237,4.9377340113741575,1.7464109730194697,2.793462554770351,0.0,0,225,0.420551613824754
226,6.641909670422694,5.067794551938531,6.272153050444717,3.656163654102936,3.6459678869970475,0.0,0,226,0.5923014830501175
227,5.140363177889176,5.067794551938531,6.869715587945507,1.7464109730194697,2.9691665192108148,0.0,0,227,0.5105323108055416
228,5.112018552195214,3.2534569567348117,6.445217759417596,2.7415177121129175,2.48555668855391,0.0,0,228,0.4694037635724415
229,5.009118644610923,3.2534569567348117,5.222825338081148,1.7464109730194697,3.347805257759652,0.0,0,229,0.43524520143609446
230,5.03549406003522,4.413739527944428,5.777793098504468,4.691378346686994,2.94771809994678,0.0,0,230,0.5356606800863426
231,5.123289664530234,3.2534569567348117,5.05155391093132,2.7415177121129175,2.48555668855391,0.0,0,231,0.4370198990720044
232,5.123289664530234,5.019611018428566,5.525186064121011,1.7464109730194697,2.793462554770351,0.0,0,232,0.4733906872178415
233,5.502933257273884,3.2534569567348117,5.4523071842039155,3.782252746695167,2.793462554770351,0.0,0,233,0.4868946334754875
234,6.641909670422694,3.917970756552728,5.725325678610332,1.7464109730194697,2.48555668855391,0.0,0,234,0.48063430733688883
235,5.169275869804414,4.319981575535332,6.658211482751795,3.6039155054366545,2.94771809994678,0.0,0,235,0.5317480637030443
236,5.169275869804414,3.2092504806153417,5.978091748990298,3.656163654102936,2.9691665192108148,0.0,0,236,0.49152209213049847
237,5.03549406003522,7.05155391093132,6.641909670422694,3.83455474836509,2.48555668855391,0.0,0,237,0.5867982648349708
238,5.123289664530234,4.319981575535332,5.222825338081148,2.7415177121129175,2.793462554770351,0.0,0,238,0.4732294363277029
239,5.417203383248,3.2092504806153417,5.813862353211989,4.691378346686994,2.793462554770351,0.0,0,239,0.5136176563355943
240,6.641909670422694,3.2092504806153417,5.481018480845443,2.9021101016434363,2.6778122174076993,0.0,0,240,0.48988585219275327
241,4.978091748990298,3.3627555992256237,5.525186064121011,1.7464109730194697,2.793462554770351,0.0,0,241,0.43117587409798364
242,5.163446791002217,4.795715006501729,5.4523071842039155,3.83455474836509,3.6459678869970475,0.0,0,242,0.5362666739238603
243,4.67055987517944,3.532680600667936,6.641909670422694,2.7415177121129175,3.347805257759652,0.0,0,243,0.49040994143869016
244,5.658211482751795,6.96789598188441,6.084220099851642,1.7464109730194697,2.48555668855391,0.0,0,244,0.5374450838032337
245,5.502933257273884,3.2534569567348117,6.445217759417596,1.7464109730194697,3.5573102671766508,0.0,0,245,0.48035683740611557
246,5.123289664530234,5.046180738832468,6.641909670422694,3.656163654102936,2.48555668855391,0.0,0,246,0.5376982056636499
247,5.683014873752367,3.532680600667936,5.978091748990298,2.7415177121129175,2.6778122174076993,0.0,0,247,0.4828818723908016
248,4.993521789559904,5.019611018428566,5.291094614098177,1.7464109730194697,2.793462554770351,0.0,0,248,0.4648669364995001
249,5.502933257273884,3.2534569567348117,5.650037551306094,1.7464109730194697,2.48555668855391,0.0,0,249,0.4366221379970218
250,4.645967886997048,3.3627555992256237,5.525186064121011,2.7415177121129175,2.6778122174076993,0.0,0,250,0.44399765935481916
251,5.019611018428566,3.917970756552728,5.525186064121011,2.9021101016434363,3.5573102671766508,0.0,0,251,0.49012215578067775
252,5.502933257273884,3.3627555992256237,4.9377340113741575,2.7415177121129175,2.94771809994678,0.0,0,252,0.4566340671043311
253,4.957771764610703,3.917970756552728,5.1289584146169265,1.7464109730194697,2.6778122174076993,0.0,0,253,0.4317150735712797
254,5.342856041787918,4.413739527944428,5.978091748990298,1.7464109730194697,3.347805257759652,0.0,0,254,0.48793687394342383
255,4.67055987517944,3.532680600667936,5.777793098504468,1.7464109730194697,3.347805257759652,0.0,0,255,0.4468558672560633
256,5.009118644610923,4.795715006501729,5.459431618637297,1.7464109730194697,2.94771809994678,0.0,0,256,0.46754436791983717
257,5.112018552195214,3.532680600667936,5.525186064121011,2.7415177121129175,2.48555668855391,0.0,0,257,0.45439222556051667
258,5.342856041787918,4.382933481163254,5.650037551306094,3.782252746695167,2.48555668855391,0.0,0,258,0.5070227683429307
259,6.641909670422694,3.2534569567348117,5.284753087224351,4.691378346686994,3.347805257759652,0.0,0,259,0.543934261811124
260,5.140363177889176,3.3627555992256237,5.222825338081148,1.7464109730194697,2.9691665192108148,0.0,0,260,0.432010181549038
261,4.637862837359992,4.413739527944428,5.725325678610332,2.7415177121129175,2.9691665192108148,0.0,0,261,0.47994180127565605
262,5.019611018428566,3.2092504806153417,5.100834813702538,3.782252746695167,2.6778122174076993,0.0,0,262,0.4635939779817863
263,4.957771764610703,3.2092504806153417,6.641909670422694,3.782252746695167,2.48555668855391,0.0,0,263,0.4937427101349833
264,6.658211482751795,3.917970756552728,6.641909670422694,2.9021101016434363,2.9691665192108148,0.0,0,264,0.5408904158283971
265,5.674699605540364,5.019611018428566,5.481018480845443,4.691378346686994,3.5573102671766508,0.0,0,265,0.5721558423115178
266,5.140363177889176,5.100834813702538,5.284753087224351,2.7415177121129175,2.793462554770351,0.0,0,266,0.493372345727887
267,4.67055987517944,3.2092504806153417,4.9377340113741575,3.656163654102936,3.347805257759652,0.0,0,267,0.4643377988290726
268,4.993521789559904,5.100834813702538,6.084220099851642,2.7415177121129175,2.793462554770351,0.0,0,268,0.5086607216243209
269,5.046180738832468,3.3627555992256237,5.100834813702538,2.7415177121129175,2.94771809994678,0.0,0,269,0.4497549963914733
270,5.169275869804414,3.2534569567348117,5.525186064121011,2.7415177121129175,2.9691665192108148,0.0,0,270,0.46052147347260325
271,5.009118644610923,5.046180738832468,5.73393880891504,3.6039155054366545,2.48555668855391,0.0,0,271,0.512529597463329
272,5.123289664530234,5.019611018428566,5.284753087224351,3.83455474836509,2.793462554770351,0.0,0,272,0.5166750698452822
273,5.112018552195214,3.532680600667936,5.742603670042167,1.7464109730194697,3.347805257759652,0.0,0,273,0.45637311076566073
274,4.9179707565527275,5.100834813702538,5.73393880891504,1.7464109730194697,2.48555668855391,0.0,0,274,0.46816088502427333
275,4.637862837359992,4.163446791002217,5.222825338081148,2.9021101016434363,2.94771809994678,0.0,0,275,0.4655664873588128
276,5.009118644610923,4.795715006501729,5.151858816727005,3.6039155054366545,2.94771809994678,0.0,0,276,0.5038529926927118
277,5.169275869804414,3.917970756552728,5.777793098504468,3.656163654102936,2.793462554770351,0.0,0,277,0.49931631975432383
278,4.978091748990298,4.70401517236492,5.978091748990298,3.83455474836509,2.48555668855391,0.0,0,278,0.514909667547154
279,5.019611018428566,3.2092504806153417,5.4033975837229695,1.7464109730194697,2.793462554770351,0.0,0,279,0.4256994881083158
280,6.641909670422694,5.100834813702538,5.73393880891504,3.782252746695167,3.5573102671766508,0.0,0,280,0.5813441700004591
281,5.163446791002217,3.2092504806153417,5.978091748990298,3.6039155054366545,2.48555668855391,0.0,0,281,0.47883255764928323
282,5.57848429028106,3.2534569567348117,5.222825338081148,1.7464109730194697,2.793462554770351,0.0,0,282,0.43559712815521817
283,5.140363177889176,3.3627555992256237,5.100834813702538,1.7464109730194697,2.48555668855391,0.0,0,283,0.41782341730612976
284,4.9179707565527275,4.163446791002217,5.100834813702538,2.9021101016434363,3.6459678869970475,0.0,0,284,0.4856277029995491
285,5.169275869804414,4.319981575535332,5.691378346686994,3.656163654102936,3.347805257759652,0.0,0,285,0.5196954627573406
286,5.157641169321011,5.540214273353343,5.525186064121011,3.83455474836509,2.9691665192108148,0.0,0,286,0.5394238164510717
287,5.609848461190396,5.067794551938531,7.25966210626152,2.7415177121129175,2.94771809994678,0.0,0,287,0.5534741901699328
288,4.637862837359992,4.382933481163254,5.691378346686994,2.9021101016434363,2.6778122174076993,0.0,0,288,0.4753616696493903
289,6.625790005059417,4.382933481163254,5.978091748990298,3.83455474836509,2.48555668855391,0.0,0,289,0.5459869221921049
290,4.645967886997048,3.532680600667936,5.228899852490833,3.656163654102936,2.94771809994678,0.0,0,290,0.46878678083549763
291,5.019611018428566,6.96789598188441,5.481018480845443,2.7415177121129175,2.9691665192108148,0.0,0,291,0.5429950309534237
292,6.658211482751795,5.067794551938531,5.481018480845443,2.7415177121129175,2.793462554770351,0.0,0,292,0.5327530896846163
293,4.993521789559904,3.532680600667936,6.272153050444717,1.7464109730194697,2.48555668855391,0.0,0,293,0.4458034165156675
294,4.637862837359992,3.2534569567348117,5.05155391093132,1.7464109730194697,3.5573102671766508,0.0,0,294,0.42744383911156897
295,5.140363177889176,3.2534569567348117,6.832240882526844,1.7464109730194697,2.793462554770351,0.0,0,295,0.46303581412759354
296,5.157641169321011,3.2092504806153417,5.813862353211989,2.7415177121129175,2.6778122174076993,0.0,0,296,0.45915060581112455
297,6.625790005059417,5.540214273353343,5.222825338081148,3.83455474836509,2.94771809994678,0.0,0,297,0.566231061967044
298,5.151858816727005,3.3627555992256237,6.832240882526844,8.658211482751796,2.94771809994678,0.0,0,298,0.6313946179517536
299,5.683014873752367,3.3627555992256237,5.151858816727005,3.656163654102936,2.9691665192108148,0.0,0,299,0.48779762806473026
300,5.123289664530234,3.2534569567348117,5.4523071842039155,1.7464109730194697,3.347805257759652,0.0,0,300,0.44329559663715545
301,5.03549406003522,6.96789598188441,5.175128596049852,3.83455474836509,3.6459678869970475,0.0,0,301,0.5776614925867812
302,5.410283969308209,5.067794551938531,8.658211482751796,4.393129248269142,2.9691665192108148,0.0,0,302,0.6207545718634905
303,9.310288179331488,5.222825338081148,5.481018480845443,3.6039155054366545,2.793462554770351,0.0,0,303,0.6187147404771103
304,4.993521789559904,3.917970756552728,5.601943263105049,3.656163654102936,2.48555668855391,0.0,0,304,0.48386667592015487
305,4.67055987517944,4.413739527944428,4.9377340113741575,1.7464109730194697,2.94771809994678,0.0,0,305,0.4384439053475256
306,5.169275869804414,5.716763665106908,5.175128596049852,1.7464109730194697,2.48555668855391,0.0,0,306,0.47538600472109666
307,5.123289664530234,3.2092504806153417,5.4523071842039155,1.7464109730194697,2.9691665192108148,0.0,0,307,0.4333900453575671
308,5.046180738832468,4.413739527944428,5.73393880891504,3.656163654102936,2.9691665192108148,0.0,0,308,0.5111352582164346
309,5.417203383248,3.3627555992256237,5.100834813702538,3.83455474836509,2.9691665192108148,0.0,0,309,0.48455443635122425
310,5.151858816727005,4.319981575535332,4.9377340113741575,3.6039155054366545,2.9691665192108148,0.0,0,310,0.4915386813479514
311,5.342856041787918,4.163446791002217,5.1289584146169265,2.7415177121129175,2.48555668855391,0.0,0,311,0.4652941016459806
312,5.046180738832468,3.532680600667936,5.05155391093132,2.7415177121129175,2.48555668855391,0.0,0,312,0.4417546285578527
313,5.502933257273884,4.699790586503194,5.4523071842039155,1.7464109730194697,2.94771809994678,0.0,0,313,0.47669842742480556
314,6.247278381805687,3.2092504806153417,4.9377340113741575,2.7415177121129175,2.9691665192108148,0.0,0,314,0.47097750575086184
315,5.163446791002217,5.222825338081148,6.869715587945507,3.656163654102936,2.9691665192108148,0.0,0,315,0.5594425827249881
316,5.019611018428566,5.019611018428566,5.151858816727005,3.83455474836509,2.6778122174076993,0.0,0,316,0.5084239051567623
317,5.169275869804414,4.70401517236492,6.641909670422694,1.7464109730194697,2.793462554770351,0.0,0,317,0.49323513746571523
318,5.169275869804414,4.163446791002217,5.151858816727005,1.7464109730194697,2.48555668855391,0.0,0,318,0.43845296302996273
319,6.658211482751795,3.917970756552728,5.459431618637297,3.656163654102936,3.347805257759652,0.0,0,319,0.5397241370359143
320,5.112018552195214,5.716763665106908,5.813862353211989,2.7415177121129175,2.9691665192108148,0.0,0,320,0.5236479852084751
321,4.67055987517944,3.917970756552728,5.175128596049852,3.656163654102936,3.347805257759652,0.0,0,321,0.4865014391945784
322,5.123289664530234,5.716763665106908,5.699790586503194,3.6039155054366545,2.9691665192108148,0.0,0,322,0.5414422705655878
323,4.993521789559904,6.641909670422694,6.96789598188441,1.7464109730194697,2.9691665192108148,0.0,0,323,0.5462675243699749
324,5.046180738832468,3.2534569567348117,5.777793098504468,3.782252746695167,2.94771809994678,0.0,0,324,0.4874331712817386
325,5.123289664530234,3.532680600667936,6.658211482751795,3.656163654102936,3.5573102671766508,0.0,0,325,0.5277317578620527
326,5.019611018428566,4.163446791002217,5.291094614098177,1.7464109730194697,2.6778122174076993,0.0,0,326,0.4427124211203599
327,5.342856041787918,3.3627555992256237,6.641909670422694,1.7464109730194697,3.347805257759652,0.0,0,327,0.47886714202769814
328,4.993521789559904,3.2092504806153417,6.175128596049852,2.9021101016434363,2.9691665192108148,0.0,0,328,0.4743562396114409
329,5.502933257273884,4.163446791002217,5.481018480845443,2.7415177121129175,2.9691665192108148,0.0,0,329,0.4886204247092178
330,5.140363177889176,5.046180738832468,5.525186064121011,6.641909670422694,2.9691665192108148,0.0,0,330,0.5932108165430984
331,5.674699605540364,3.917970756552728,5.151858816727005,1.7464109730194697,2.48555668855391,0.0,0,331,0.4445424851429752
332,7.073248982030639,3.2534569567348117,6.084220099851642,1.7464109730194697,2.9691665192108148,0.0,0,332,0.49490843652415656
333,5.019611018428566,3.3627555992256237,5.4033975837229695,1.7464109730194697,2.94771809994678,0.0,0,333,0.4329090743380448
334,4.9179707565527275,3.2092504806153417,6.175128596049852,3.656163654102936,2.9691665192108148,0.0,0,334,0.49025080638580304
335,4.993521789559904,3.2092504806153417,5.625790005059417,3.83455474836509,2.9691665192108148,0.0,0,335,0.4833308633009705
336,7.625790005059417,5.222825338081148,5.725325678610332,2.9021101016434363,2.48555668855391,0.0,0,336,0.5613234504943502
337,5.019611018428566,5.100834813702538,5.625790005059417,4.393129248269142,2.9691665192108148,0.0,0,337,0.5413393290630241
338,5.019611018428566,5.067794551938531,5.284753087224351,4.393129248269142,2.6778122174076993,0.0,0,338,0.5257509637855491
339,4.637862837359992,5.540214273353343,5.699790586503194,3.656163654102936,2.48555668855391,0.0,0,339,0.5158297904718475
340,5.123289664530234,5.222825338081148,5.525186064121011,2.7415177121129175,2.9691665192108148,0.0,0,340,0.5055785300843805
341,6.641909670422694,5.067794551938531,4.9377340113741575,1.7464109730194697,2.48555668855391,0.0,0,341,0.4891199394217055
342,5.046180738832468,3.532680600667936,5.100834813702538,1.7464109730194697,2.94771809994678,0.0,0,342,0.43042432943880365
343,5.03549406003522,6.641909670422694,7.389722646825892,2.9021101016434363,2.48555668855391,0.0,0,343,0.5728767864671964
344,4.993521789559904,3.917970756552728,5.222825338081148,1.7464109730194697,2.6778122174076993,0.0,0,344,0.43475147385363855
345,6.641909670422694,3.3627555992256237,7.05155391093132,3.83455474836509,2.9691665192108148,0.0,0,345,0.5589417958117989
346,4.993521789559904,3.917970756552728,6.084220099851642,2.7415177121129175,3.347805257759652,0.0,0,346,0.4939370111790296
347,5.410283969308209,3.917970756552728,5.725325678610332,6.641909670422694,2.48555668855391,0.0,0,347,0.5664640166197674
348,6.247278381805687,4.163446791002217,5.459431618637297,1.7464109730194697,2.793462554770351,0.0,0,348,0.4781243701758009
349,4.978091748990298,5.046180738832468,6.641909670422694,1.7464109730194697,2.6778122174076993,0.0,0,349,0.49406280227732613
350,4.978091748990298,5.067794551938531,6.641909670422694,1.7464109730194697,3.347805257759652,0.0,0,350,0.5102643505379989
351,5.019611018428566,3.2534569567348117,5.742603670042167,2.9021101016434363,3.6459678869970475,0.0,0,351,0.4817253913076989
352,4.645967886997048,3.532680600667936,5.284753087224351,1.7464109730194697,3.347805257759652,0.0,0,352,0.43472984540039716
353,5.03549406003522,7.05155391093132,6.641909670422694,2.7415177121129175,2.94771809994678,0.0,0,353,0.5720194033596476
354,5.609848461190396,5.019611018428566,5.100834813702538,2.7415177121129175,3.347805257759652,0.0,0,354,0.5111452848558391
355,5.046180738832468,3.917970756552728,5.228899852490833,3.6039155054366545,2.48555668855391,0.0,0,355,0.47513740265694465
356,4.645967886997048,4.413739527944428,7.05155391093132,1.7464109730194697,3.347805257759652,0.0,0,356,0.49675847818296087
357,4.67055987517944,3.532680600667936,5.716763665106908,6.641909670422694,2.48555668855391,0.0,0,357,0.5399089146153618
358,5.151858816727005,4.163446791002217,6.658211482751795,3.6039155054366545,2.94771809994678,0.0,0,358,0.5276730764787444
359,5.140363177889176,3.532680600667936,5.525186064121011,1.7464109730194697,2.6778122174076993,0.0,0,359,0.4362486722614346
360,5.140363177889176,3.3627555992256237,5.777793098504468,3.6039155054366545,3.5573102671766508,0.0,0,360,0.5023024658920878
361,5.123289664530234,3.2092504806153417,5.850856560694191,1.7464109730194697,2.6778122174076993,0.0,0,361,0.43590119192467647
362,4.637862837359992,3.532680600667936,5.525186064121011,3.782252746695167,2.793462554770351,0.0,0,362,0.47487787267750353
363,4.9179707565527275,4.382933481163254,5.100834813702538,2.7415177121129175,3.6459678869970475,0.0,0,363,0.48700735800032446
364,4.957771764610703,4.795715006501729,5.716763665106908,3.782252746695167,2.6778122174076993,0.0,0,364,0.5137384939920423
365,5.57848429028106,4.795715006501729,5.609848461190396,3.782252746695167,2.793462554770351,0.0,0,365,0.5284839040118441
366,4.993521789559904,4.699790586503194,6.272153050444717,3.83455474836509,2.48555668855391,0.0,0,366,0.5220608316190739
367,5.140363177889176,3.2534569567348117,4.9377340113741575,4.393129248269142,3.5573102671766508,0.0,0,367,0.4985509407045629
368,7.25966210626152,5.222825338081148,5.222825338081148,4.691378346686994,2.94771809994678,0.0,0,368,0.5937168887348865
369,5.163446791002217,3.2534569567348117,6.641909670422694,3.83455474836509,3.347805257759652,0.0,0,369,0.5210206388294744
370,5.57848429028106,4.319981575535332,5.291094614098177,1.7464109730194697,3.6459678869970475,0.0,0,370,0.4821515024711598
371,5.046180738832468,3.2092504806153417,5.699790586503194,4.691378346686994,3.5573102671766508,0.0,0,371,0.5201477175126353
372,5.123289664530234,3.917970756552728,6.272153050444717,4.393129248269142,3.5573102671766508,0.0,0,372,0.5449778801541738
373,5.163446791002217,4.70401517236492,5.73393880891504,1.7464109730194697,2.793462554770351,0.0,0,373,0.47182850483981587
374,5.683014873752367,4.382933481163254,5.850856560694191,1.7464109730194697,2.6778122174076993,0.0,0,374,0.476507927710502
375,5.140363177889176,4.319981575535332,5.481018480845443,3.83455474836509,2.94771809994678,0.0,0,375,0.5088968344218526
376,6.641909670422694,3.2092504806153417,5.4523071842039155,3.656163654102936,2.793462554770351,0.0,0,376,0.5095869034723317
377,4.67055987517944,4.163446791002217,6.96789598188441,4.691378346686994,2.6778122174076993,0.0,0,377,0.5428048942145998
378,5.140363177889176,3.3627555992256237,6.272153050444717,3.782252746695167,2.6778122174076993,0.0,0,378,0.4974579591592265
379,5.140363177889176,5.222825338081148,6.175128596049852,1.7464109730194697,2.9691665192108148,0.0,0,379,0.49789269356759014
380,6.641909670422694,3.917970756552728,5.4033975837229695,1.7464109730194697,3.5573102671766508,0.0,0,380,0.49819968237775164
381,5.417203383248,3.2092504806153417,5.73393880891504,3.6039155054366545,2.48555668855391,0.0,0,381,0.47905753233445514
382,4.637862837359992,3.2534569567348117,5.978091748990298,1.7464109730194697,2.48555668855391,0.0,0,382,0.4240420222886303
383,5.046180738832468,3.917970756552728,6.175128596049852,1.7464109730194697,2.6778122174076993,0.0,0,383,0.4582936692777618
384,4.637862837359992,4.795715006501729,6.641909670422694,3.656163654102936,2.6778122174076993,0.0,0,384,0.5249629912216864
385,5.112018552195214,3.917970756552728,5.284753087224351,1.7464109730194697,2.48555668855391,0.0,0,385,0.4344743210273477
386,5.674699605540364,4.795715006501729,6.641909670422694,2.9021101016434363,2.94771809994678,0.0,0,386,0.537910258955999
387,5.683014873752367,3.2534569567348117,5.716763665106908,1.7464109730194697,2.6778122174076993,0.0,0,387,0.44690761239156496
388,5.683014873752367,4.163446791002217,5.222825338081148,1.7464109730194697,3.347805257759652,0.0,0,388,0.47234923874778273
389,5.57848429028106,3.2534569567348117,4.9377340113741575,2.7415177121129175,2.793462554770351,0.0,0,389,0.45222991441533716
390,4.645967886997048,3.2092504806153417,5.73393880891504,2.9021101016434363,3.347805257759652,0.0,0,390,0.46474914112079246
391,5.410283969308209,4.70401517236492,5.05155391093132,1.7464109730194697,2.793462554770351,0.0,0,391,0.461625385300294
392,5.123289664530234,3.2534569567348117,5.742603670042167,1.7464109730194697,2.48555668855391,0.0,0,392,0.4298970751575917
393,5.123289664530234,3.2092504806153417,5.525186064121011,3.656163654102936,3.6459678869970475,0.0,0,393,0.495689790836271
394,5.410283969308209,5.716763665106908,6.641909670422694,3.782252746695167,2.94771809994678,0.0,0,394,0.5739106904397527
395,5.157641169321011,4.699790586503194,5.601943263105049,3.782252746695167,2.48555668855391,0.0,0,395,0.5089799584010039
396,5.410283969308209,5.046180738832468,5.57848429028106,2.7415177121129175,2.6778122174076993,0.0,0,396,0.5025868869156517
397,4.645967886997048,3.2534569567348117,5.525186064121011,3.656163654102936,2.793462554770351,0.0,0,397,0.4655729048674619
398,5.151858816727005,3.3627555992256237,5.284753087224351,3.656163654102936,2.793462554770351,0.0,0,398,0.47435193450661445
399,4.978091748990298,4.413739527944428,5.100834813702538,1.7464109730194697,2.6778122174076993,0.0,0,399,0.44314612137887743
400,5.046180738832468,4.382933481163254,5.4523071842039155,2.7415177121129175,2.6778122174076993,0.0,0,400,0.47556440601575467
401,4.67055987517944,4.319981575535332,5.1289584146169265,4.393129248269142,2.48555668855391,0.0,0,401,0.49190247169931595
402,5.03549406003522,5.540214273353343,5.716763665106908,2.7415177121129175,3.6459678869970475,0.0,0,402,0.5312995753734581
403,5.019611018428566,5.046180738832468,6.658211482751795,3.83455474836509,3.347805257759652,0.0,0,403,0.560029294002629
404,5.019611018428566,3.2092504806153417,5.699790586503194,1.7464109730194697,2.9691665192108148,0.0,0,404,0.4367588085298818
405,4.637862837359992,4.319981575535332,5.850856560694191,2.7415177121129175,2.48555668855391,0.0,0,405,0.46935709217305965
406,5.123289664530234,4.413739527944428,5.601943263105049,3.782252746695167,2.94771809994678,0.0,0,406,0.512300794229145
407,5.157641169321011,4.382933481163254,5.222825338081148,2.7415177121129175,3.6459678869970475,0.0,0,407,0.4954796093926992
408,5.157641169321011,4.795715006501729,6.272153050444717,1.7464109730194697,2.793462554770351,0.0,0,408,0.48644883890183255
409,6.641909670422694,3.2092504806153417,5.525186064121011,1.7464109730194697,2.6778122174076993,0.0,0,409,0.46384716867598336
410,5.009118644610923,5.222825338081148,5.742603670042167,2.7415177121129175,2.9691665192108148,0.0,0,410,0.5079971795490219
411,4.978091748990298,5.222825338081148,5.699790586503194,3.656163654102936,3.5573102671766508,0.0,0,411,0.5414716854562214
412,5.502933257273884,3.532680600667936,5.05155391093132,2.9021101016434363,2.793462554770351,0.0,0,412,0.46342950785710446
413,5.502933257273884,5.100834813702538,5.291094614098177,3.656163654102936,2.48555668855391,0.0,0,413,0.5162279142246637
414,6.625790005059417,3.532680600667936,5.699790586503194,3.656163654102936,2.48555668855391,0.0,0,414,0.5153704894467561
415,4.957771764610703,3.2092504806153417,5.481018480845443,1.7464109730194697,2.94771809994678,0.0,0,415,0.42968277095392454
416,5.674699605540364,3.3627555992256237,5.05155391093132,3.83455474836509,2.48555668855391,0.0,0,416,0.47810305802756914
417,5.609848461190396,3.532680600667936,5.699790586503194,4.393129248269142,3.6459678869970475,0.0,0,417,0.5360189483938035
418,6.641909670422694,4.163446791002217,5.813862353211989,2.7415177121129175,2.9691665192108148,0.0,0,418,0.5230992145991474
419,6.641909670422694,3.3627555992256237,6.362755599225624,4.691378346686994,2.94771809994678,0.0,0,419,0.5623754983241883
420,4.637862837359992,3.2534569567348117,5.609848461190396,2.7415177121129175,2.6778122174076993,0.0,0,420,0.44323066338108835
421,5.019611018428566,5.046180738832468,5.73393880891504,3.6039155054366545,2.793462554770351,0.0,0,421,0.5199883790329923
422,5.03549406003522,5.100834813702538,5.716763665106908,3.656163654102936,2.48555668855391,0.0,0,422,0.5152494088258003
423,5.157641169321011,3.917970756552728,5.151858816727005,6.641909670422694,3.5573102671766508,0.0,0,423,0.5722184589771598
424,5.112018552195214,3.3627555992256237,5.1289584146169265,3.6039155054366545,3.6459678869970475,0.0,0,424,0.48851578562505077
425,4.67055987517944,5.100834813702538,5.525186064121011,4.393129248269142,2.48555668855391,0.0,0,425,0.5194767108974526
426,5.151858816727005,4.413739527944428,5.650037551306094,3.6039155054366545,2.793462554770351,0.0,0,426,0.5063054059093057
427,5.151858816727005,7.05155391093132,5.57848429028106,1.7464109730194697,2.94771809994678,0.0,0,427,0.5265222858900634
428,5.609848461190396,5.067794551938531,6.658211482751795,2.9021101016434363,3.5573102671766508,0.0,0,428,0.5574269430223737
429,5.502933257273884,3.2534569567348117,5.73393880891504,2.7415177121129175,2.9691665192108148,0.0,0,429,0.47322794665314766
430,5.163446791002217,3.532680600667936,6.641909670422694,3.83455474836509,2.94771809994678,0.0,0,430,0.518189296075587
431,4.9179707565527275,4.699790586503194,5.691378346686994,2.7415177121129175,2.6778122174076993,0.0,0,431,0.48558411361488174
432,5.140363177889176,5.540214273353343,6.084220099851642,1.7464109730194697,2.48555668855391,0.0,0,432,0.4918691930395968
433,5.151858816727005,3.532680600667936,5.625790005059417,1.7464109730194697,3.347805257759652,0.0,0,433,0.4545699356583597
434,5.157641169321011,4.795715006501729,5.716763665106908,2.9021101016434363,3.6459678869970475,0.0,0,434,0.5204824136734906
435,4.9179707565527275,3.3627555992256237,5.716763665106908,3.6039155054366545,2.94771809994678,0.0,0,435,0.4813827631708602
436,7.625790005059417,5.067794551938531,6.445217759417596,2.9021101016434363,2.48555668855391,0.0,0,436,0.5745558635052067
437,5.410283969308209,3.917970756552728,5.716763665106908,1.7464109730194697,2.9691665192108148,0.0,0,437,0.46291075089920525
438,5.502933257273884,3.3627555992256237,5.1289584146169265,1.7464109730194697,2.6778122174076993,0.0,0,438,0.4314795569154878
439,5.046180738832468,3.2092504806153417,5.291094614098177,2.7415177121129175,2.9691665192108148,0.0,0,439,0.45111845938472983
440,4.67055987517944,4.699790586503194,5.525186064121011,1.7464109730194697,2.793462554770351,0.0,0,440,0.45529296358885046
441,6.625790005059417,3.2534569567348117,5.725325678610332,3.6039155054366545,3.347805257759652,0.0,0,441,0.5284026240241987
442,4.637862837359992,3.3627555992256237,4.9377340113741575,1.7464109730194697,2.793462554770351,0.0,0,442,0.4094440652824476
443,5.157641169321011,6.641909670422694,5.525186064121011,3.656163654102936,3.347805257759652,0.0,0,443,0.5699230703432362
444,5.123289664530234,3.532680600667936,5.291094614098177,2.9021101016434363,2.9691665192108148,0.0,0,444,0.4642634968924238
445,5.683014873752367,5.067794551938531,5.777793098504468,1.7464109730194697,2.793462554770351,0.0,0,445,0.493549087647652
446,4.645967886997048,3.3627555992256237,5.459431618637297,2.7415177121129175,3.5573102671766508,0.0,0,446,0.4630603771557228
447,5.163446791002217,5.019611018428566,5.57848429028106,3.656163654102936,3.6459678869970475,0.0,0,447,0.5402884885996919
448,4.637862837359992,5.100834813702538,5.601943263105049,1.7464109730194697,2.9691665192108148,0.0,0,448,0.4698359896423074
449,6.641909670422694,3.917970756552728,5.777793098504468,2.9021101016434363,3.6459678869970475,0.0,0,449,0.5361204935779247
450,5.03549406003522,3.3627555992256237,6.641909670422694,2.7415177121129175,2.9691665192108148,0.0,0,450,0.4861082444778572
451,5.046180738832468,4.319981575535332,5.228899852490833,2.7415177121129175,3.5573102671766508,0.0,0,451,0.4894592467721482
452,5.112018552195214,3.2092504806153417,5.228899852490833,3.656163654102936,3.6459678869970475,0.0,0,452,0.4884849680352372
453,4.957771764610703,6.641909670422694,5.100834813702538,3.6039155054366545,2.48555668855391,0.0,0,453,0.5338771525598005
454,6.625790005059417,4.163446791002217,5.05155391093132,1.7464109730194697,2.48555668855391,0.0,0,454,0.470223453985615
455,5.502933257273884,3.2092504806153417,5.05155391093132,2.7415177121129175,2.793462554770351,0.0,0,455,0.4520908202645027
456,5.417203383248,3.3627555992256237,5.4523071842039155,2.9021101016434363,3.5573102671766508,0.0,0,456,0.48472243489693667
457,5.123289664530234,3.917970756552728,5.525186064121011,2.7415177121129175,3.6459678869970475,0.0,0,457,0.49086578627358995
458,4.957771764610703,4.795715006501729,5.459431618637297,2.9021101016434363,2.793462554770351,0.0,0,458,0.48980128674046924
459,7.25966210626152,3.532680600667936,5.742603670042167,3.656163654102936,2.48555668855391,0.0,0,459,0.5312224834272212
460,5.417203383248,3.3627555992256237,6.641909670422694,2.9021101016434363,2.94771809994678,0.0,0,460,0.49830972820931785
461,5.502933257273884,3.3627555992256237,6.658211482751795,3.782252746695167,2.48555668855391,0.0,0,461,0.5104915253931556
462,4.993521789559904,4.795715006501729,5.742603670042167,1.7464109730194697,2.48555668855391,0.0,0,462,0.46298600078097296
463,7.073248982030639,3.2092504806153417,5.459431618637297,3.782252746695167,2.6778122174076993,0.0,0,463,0.5201028714710768
464,5.03549406003522,3.2092504806153417,5.525186064121011,1.7464109730194697,3.6459678869970475,0.0,0,464,0.44889532257730574
465,5.019611018428566,5.540214273353343,5.1289584146169265,1.7464109730194697,2.48555668855391,0.0,0,465,0.46666254543797403
466,5.140363177889176,3.917970756552728,7.658211482751795,3.656163654102936,2.48555668855391,0.0,0,466,0.5354766136451896
467,5.019611018428566,5.046180738832468,7.05155391093132,2.7415177121129175,3.5573102671766508,0.0,0,467,0.5485461364835986
468,5.163446791002217,5.716763665106908,5.699790586503194,2.7415177121129175,3.5573102671766508,0.0,0,468,0.5359583276144134
469,4.957771764610703,4.795715006501729,5.650037551306094,3.83455474836509,2.94771809994678,0.0,0,469,0.519723397427129
470,7.073248982030639,3.2534569567348117,5.175128596049852,3.656163654102936,2.6778122174076993,0.0,0,470,0.5115246246333892
471,6.641909670422694,4.70401517236492,5.525186064121011,3.656163654102936,3.6459678869970475,0.0,0,471,0.5662811931086953
472,6.641909670422694,3.2092504806153417,6.175128596049852,1.7464109730194697,2.6778122174076993,0.0,0,472,0.4790726905820474
473,6.641909670422694,3.3627555992256237,5.222825338081148,2.7415177121129175,2.48555668855391,0.0,0,473,0.47916763762191245
474,5.502933257273884,3.917970756552728,5.481018480845443,2.7415177121129175,2.6778122174076993,0.0,0,474,0.47604466355661695
475,5.140363177889176,3.3627555992256237,5.100834813702538,2.9021101016434363,3.347805257759652,0.0,0,475,0.46509576119692997
476,5.123289664530234,3.532680600667936,6.658211482751795,1.7464109730194697,2.793462554770351,0.0,0,476,0.4651001260494166
477,5.123289664530234,3.2534569567348117,5.73393880891504,1.7464109730194697,3.5573102671766508,0.0,0,477,0.4548009393627596
478,6.625790005059417,3.532680600667936,5.284753087224351,2.9021101016434363,2.9691665192108148,0.0,0,478,0.4993124399499837
479,4.67055987517944,4.699790586503194,5.601943263105049,3.6039155054366545,3.5573102671766508,0.0,0,479,0.5184987432132975
480,7.073248982030639,6.96789598188441,6.272153050444717,3.6039155054366545,2.6778122174076993,0.0,0,480,0.6230137697750626
481,4.637862837359992,4.163446791002217,5.601943263105049,1.7464109730194697,2.94771809994678,0.0,0,481,0.44737433413541844
482,5.169275869804414,3.2534569567348117,5.850856560694191,2.7415177121129175,2.6778122174076993,0.0,0,482,0.46132536296980814
483,4.993521789559904,3.2092504806153417,5.222825338081148,2.9021101016434363,3.5573102671766508,0.0,0,483,0.4658254567737711
484,4.9179707565527275,3.2092504806153417,7.658211482751795,7.658211482751795,2.9691665192108148,0.0,0,484,0.6187452097545942
485,5.417203383248,7.05155391093132,4.9377340113741575,1.7464109730194697,3.347805257759652,0.0,0,485,0.5271004722212554
486,5.683014873752367,3.917970756552728,5.228899852490833,1.7464109730194697,2.6778122174076993,0.0,0,486,0.45104580633598285
487,5.140363177889176,4.163446791002217,5.175128596049852,3.656163654102936,3.5573102671766508,0.0,0,487,0.5081653919834427
488,6.625790005059417,3.2534569567348117,5.601943263105049,3.83455474836509,3.6459678869970475,0.0,0,488,0.5378999603505519
489,4.645967886997048,3.3627555992256237,5.4033975837229695,2.9021101016434363,2.793462554770351,0.0,0,489,0.4476158969650233
490,6.625790005059417,3.2092504806153417,7.658211482751795,2.9021101016434363,2.48555668855391,0.0,0,490,0.5360072816844671
491,5.019611018428566,3.2534569567348117,5.691378346686994,2.7415177121129175,2.48555668855391,0.0,0,491,0.44957962406952884
492,5.57848429028106,3.532680600667936,5.73393880891504,3.6039155054366545,2.6778122174076993,0.0,0,492,0.49491611770282606
493,4.957771764610703,4.319981575535332,5.525186064121011,1.7464109730194697,2.94771809994678,0.0,0,493,0.4567373707998012
494,4.993521789559904,4.319981575535332,5.100834813702538,6.641909670422694,2.6778122174076993,0.0,0,494,0.5559929281622225
495,5.169275869804414,5.100834813702538,5.609848461190396,3.782252746695167,2.793462554770351,0.0,0,495,0.5260455292575411
496,5.417203383248,3.2534569567348117,6.272153050444717,2.7415177121129175,2.6778122174076993,0.0,0,496,0.4770025716769486
497,4.9179707565527275,5.067794551938531,5.151858816727005,3.782252746695167,2.48555668855391,0.0,0,497,0.5014426377305838
498,4.645967886997048,5.540214273353343,5.222825338081148,1.7464109730194697,2.6778122174076993,0.0,0,498,0.4646122902975361
499,5.169275869804414,3.917970756552728,5.625790005059417,1.7464109730194697,2.94771809994678,0.0,0,499,0.45463131284820246
500,5.169275869804414,3.532680600667936,5.699790586503194,3.83455474836509,2.793462554770351,0.0,0,500,0.4926422294506631
501,4.637862837359992,6.96789598188441,5.100834813702538,2.7415177121129175,2.94771809994678,0.0,0,501,0.5246436031928343
502,5.163446791002217,3.3627555992256237,6.641909670422694,4.393129248269142,2.6778122174076993,0.0,0,502,0.5209709782038057
503,4.637862837359992,3.2534569567348117,5.151858816727005,1.7464109730194697,2.793462554770351,0.0,0,503,0.4118997178372173
504,5.123289664530234,3.3627555992256237,5.525186064121011,1.7464109730194697,2.94771809994678,0.0,0,504,0.43819085619563597
505,5.123289664530234,4.699790586503194,5.175128596049852,2.7415177121129175,2.793462554770351,0.0,0,505,0.48100948206645433
506,6.625790005059417,3.3627555992256237,5.1289584146169265,1.7464109730194697,2.48555668855391,0.0,0,506,0.4532797754711283
507,6.658211482751795,5.540214273353343,5.850856560694191,3.782252746695167,2.6778122174076993,0.0,0,507,0.57415476845507
508,4.645967886997048,3.917970756552728,5.222825338081148,1.7464109730194697,2.94771809994678,0.0,0,508,0.43293249514128074
509,5.674699605540364,4.319981575535332,6.175128596049852,3.782252746695167,2.6778122174076993,0.0,0,509,0.530126336834008
510,7.389722646825892,3.2092504806153417,6.832240882526844,1.7464109730194697,2.48555668855391,0.0,0,510,0.5074806323510608
511,6.625790005059417,4.70401517236492,5.73393880891504,1.7464109730194697,2.6778122174076993,0.0,0,511,0.5033760661818977
512,5.169275869804414,5.100834813702538,5.777793098504468,2.9021101016434363,3.5573102671766508,0.0,0,512,0.5272554727082956
513,4.67055987517944,5.067794551938531,5.57848429028106,6.641909670422694,2.6778122174076993,0.0,0,513,0.577134861557362
514,5.151858816727005,3.917970756552728,5.73393880891504,1.7464109730194697,3.5573102671766508,0.0,0,514,0.4710370666358928
515,6.641909670422694,4.382933481163254,5.291094614098177,3.656163654102936,2.9691665192108148,0.0,0,515,0.5374210186268245
516,5.157641169321011,4.163446791002217,5.742603670042167,1.7464109730194697,2.48555668855391,0.0,0,516,0.4520191690940542
517,4.637862837359992,4.382933481163254,7.25966210626152,4.393129248269142,2.94771809994678,0.0,0,517,0.5533515516046165
518,4.957771764610703,5.716763665106908,5.725325678610332,1.7464109730194697,2.94771809994678,0.0,0,518,0.4941467803906636
519,5.046180738832468,4.382933481163254,4.9377340113741575,6.641909670422694,3.6459678869970475,0.0,0,519,0.5775603982573573
520,5.140363177889176,4.795715006501729,5.742603670042167,4.393129248269142,3.347805257759652,0.0,0,520,0.5486267853091754
521,4.645967886997048,3.3627555992256237,5.100834813702538,4.691378346686994,2.6778122174076993,0.0,0,521,0.4797341674387527
522,4.637862837359992,3.3627555992256237,5.151858816727005,2.7415177121129175,2.793462554770351,0.0,0,522,0.4377714641908273
523,4.957771764610703,3.3627555992256237,5.699790586503194,3.83455474836509,2.9691665192108148,0.0,0,523,0.48782292235003233
524,5.658211482751795,3.2534569567348117,5.4033975837229695,1.7464109730194697,2.793462554770351,0.0,0,524,0.44169489003788365
525,5.123289664530234,3.3627555992256237,5.4033975837229695,6.641909670422694,3.5573102671766508,0.0,0,525,0.5642998340692535
526,6.625790005059417,4.319981575535332,5.525186064121011,2.9021101016434363,3.347805257759652,0.0,0,526,0.5322580576816042
527,5.342856041787918,3.917970756552728,6.641909670422694,4.393129248269142,2.48555668855391,0.0,0,527,0.5336764849934885
528,5.683014873752367,4.699790586503194,5.813862353211989,3.83455474836509,2.94771809994678,0.0,0,528,0.5383035379847577
529,5.502933257273884,4.319981575535332,5.4033975837229695,2.9021101016434363,2.48555668855391,0.0,0,529,0.48290206682084064
530,4.645967886997048,4.382933481163254,5.525186064121011,2.9021101016434363,2.94771809994678,0.0,0,530,0.4779811278560927
531,5.169275869804414,3.2092504806153417,5.284753087224351,3.782252746695167,2.793462554770351,0.0,0,531,0.47411769905645235
532,5.112018552195214,3.2092504806153417,6.272153050444717,1.7464109730194697,2.793462554770351,0.0,0,532,0.4482156454611884
533,5.502933257273884,5.100834813702538,5.978091748990298,3.83455474836509,2.48555668855391,0.0,0,533,0.5365004564771853
534,7.073248982030639,4.699790586503194,5.57848429028106,1.7464109730194697,3.5573102671766508,0.0,0,534,0.5307206615922867
535,7.25966210626152,4.70401517236492,5.978091748990298,2.7415177121129175,3.5573102671766508,0.0,0,535,0.5678590377050886
536,4.67055987517944,4.163446791002217,5.725325678610332,3.656163654102936,2.48555668855391,0.0,0,536,0.48494184591360845
537,5.417203383248,4.319981575535332,5.777793098504468,3.656163654102936,2.793462554770351,0.0,0,537,0.5145417432830444
538,5.163446791002217,4.70401517236492,6.988360084444126,3.6039155054366545,3.5573102671766508,0.0,0,538,0.5626221854163802
539,4.645967886997048,5.100834813702538,6.832240882526844,1.7464109730194697,2.94771809994678,0.0,0,539,0.4983443002677723
540,5.151858816727005,3.3627555992256237,6.084220099851642,3.6039155054366545,2.9691665192108148,0.0,0,540,0.4959722794619307
541,5.112018552195214,5.222825338081148,5.691378346686994,1.7464109730194697,3.347805257759652,0.0,0,541,0.49476635665304664
542,5.169275869804414,8.658211482751796,5.459431618637297,4.393129248269142,2.94771809994678,0.0,0,542,0.62378074904953
543,4.637862837359992,3.2534569567348117,5.73393880891504,1.7464109730194697,2.94771809994678,0.0,0,543,0.42914907805539654
544,4.978091748990298,5.019611018428566,5.05155391093132,4.691378346686994,2.6778122174076993,0.0,0,544,0.5251734466073603
545,4.978091748990298,4.382933481163254,5.850856560694191,1.7464109730194697,2.793462554770351,0.0,0,545,0.4627036522669932
546,6.641909670422694,4.795715006501729,5.4033975837229695,2.7415177121129175,3.347805257759652,0.0,0,546,0.5371651437932287
547,4.9179707565527275,4.699790586503194,6.641909670422694,1.7464109730194697,2.6778122174076993,0.0,0,547,0.4845398921188871
548,4.645967886997048,4.795715006501729,6.362755599225624,1.7464109730194697,3.5573102671766508,0.0,0,548,0.49447871561276013
549,6.641909670422694,3.2534569567348117,6.641909670422694,1.7464109730194697,2.94771809994678,0.0,0,549,0.4973658618808025
550,5.502933257273884,3.2534569567348117,5.601943263105049,3.782252746695167,3.5573102671766508,0.0,0,550,0.5082938600103474
551,5.609848461190396,4.163446791002217,5.716763665106908,3.6039155054366545,2.793462554770351,0.0,0,551,0.5127340261601863
552,5.009118644610923,3.532680600667936,5.813862353211989,3.782252746695167,2.94771809994678,0.0,0,552,0.49395099247287216
553,5.157641169321011,5.222825338081148,5.813862353211989,2.7415177121129175,2.9691665192108148,0.0,0,553,0.5131457633556332
554,5.683014873752367,4.163446791002217,5.291094614098177,2.7415177121129175,2.9691665192108148,0.0,0,554,0.4883898606366873
555,5.658211482751795,5.067794551938531,5.978091748990298,1.7464109730194697,2.793462554770351,0.0,0,555,0.4976602309971624
556,5.123289664530234,5.046180738832468,5.699790586503194,1.7464109730194697,2.94771809994678,0.0,0,556,0.4817169680147465
557,6.641909670422694,5.222825338081148,5.525186064121011,3.6039155054366545,3.347805257759652,0.0,0,557,0.5702261089160954
558,4.978091748990298,5.222825338081148,5.222825338081148,3.782252746695167,2.9691665192108148,0.0,0,558,0.519474251201471
559,5.502933257273884,4.382933481163254,5.699790586503194,3.782252746695167,2.6778122174076993,0.0,0,559,0.5164420101123329
560,4.993521789559904,5.222825338081148,5.742603670042167,2.7415177121129175,2.6778122174076993,0.0,0,560,0.50080655678903
561,5.674699605540364,4.70401517236492,5.978091748990298,2.9021101016434363,2.6778122174076993,0.0,0,561,0.5138887350549861
562,5.03549406003522,5.100834813702538,5.459431618637297,3.83455474836509,3.6459678869970475,0.0,0,562,0.5405838778225461
563,5.112018552195214,3.2534569567348117,5.284753087224351,2.7415177121129175,2.6778122174076993,0.0,0,563,0.4467225436223979
564,4.67055987517944,5.019611018428566,5.05155391093132,1.7464109730194697,2.9691665192108148,0.0,0,564,0.4558058102047845
565,5.609848461190396,5.019611018428566,4.9377340113741575,4.393129248269142,2.9691665192108148,0.0,0,565,0.5371450918340006
566,5.342856041787918,4.382933481163254,4.9377340113741575,1.7464109730194697,2.94771809994678,0.0,0,566,0.4534714214618635
567,5.609848461190396,5.019611018428566,6.869715587945507,3.782252746695167,3.347805257759652,0.0,0,567,0.5769632071234274
568,4.9179707565527275,4.413739527944428,6.988360084444126,1.7464109730194697,2.793462554770351,0.0,0,568,0.4886640235966547
569,4.67055987517944,3.2092504806153417,5.716763665106908,3.656163654102936,2.9691665192108148,0.0,0,569,0.4737173367891904
570,5.140363177889176,5.222825338081148,5.699790586503194,3.656163654102936,3.5573102671766508,0.0,0,570,0.5452730479983772
571,5.03549406003522,4.382933481163254,5.813862353211989,1.7464109730194697,2.6778122174076993,0.0,0,571,0.46047251236482406
572,5.112018552195214,4.795715006501729,6.641909670422694,1.7464109730194697,3.5573102671766508,0.0,0,572,0.5119358452528473
573,5.140363177889176,3.3627555992256237,5.57848429028106,1.7464109730194697,3.347805257759652,0.0,0,573,0.4492118032722511
574,5.009118644610923,3.3627555992256237,5.222825338081148,3.782252746695167,2.48555668855391,0.0,0,574,0.4652981629818555
575,4.645967886997048,4.163446791002217,5.813862353211989,1.7464109730194697,2.9691665192108148,0.0,0,575,0.45303105847069036
576,4.67055987517944,3.532680600667936,5.4033975837229695,3.6039155054366545,3.6459678869970475,0.0,0,576,0.4885838495741771
577,5.502933257273884,3.3627555992256237,5.525186064121011,1.7464109730194697,3.6459678869970475,0.0,0,577,0.463441533694382
578,6.641909670422694,3.2092504806153417,5.650037551306094,2.9021101016434363,2.6778122174076993,0.0,0,578,0.4938452846555036
579,4.637862837359992,3.2092504806153417,5.699790586503194,1.7464109730194697,3.5573102671766508,0.0,0,579,0.44159382096672417
580,5.151858816727005,5.100834813702538,5.05155391093132,4.691378346686994,2.48555668855391,0.0,0,580,0.5266430814713156
581,4.645967886997048,4.163446791002217,5.525186064121011,2.7415177121129175,2.9691665192108148,0.0,0,581,0.4695798635776638
582,5.046180738832468,4.795715006501729,5.151858816727005,1.7464109730194697,2.9691665192108148,0.0,0,582,0.46170984695514355
583,4.645967886997048,5.540214273353343,5.525186064121011,3.782252746695167,2.94771809994678,0.0,0,583,0.5257097094640583
584,5.609848461190396,3.2092504806153417,5.609848461190396,2.7415177121129175,2.9691665192108148,0.0,0,584,0.4717900238323963
585,5.140363177889176,3.3627555992256237,6.641909670422694,1.7464109730194697,2.48555668855391,0.0,0,585,0.45392456138765913
586,5.123289664530234,5.019611018428566,5.291094614098177,3.782252746695167,2.6778122174076993,0.0,0,586,0.5128891828785108
587,6.641909670422694,3.532680600667936,6.96789598188441,4.393129248269142,2.793462554770351,0.0,0,587,0.5699317904259651
588,5.123289664530234,3.2092504806153417,4.9377340113741575,3.83455474836509,2.6778122174076993,0.0,0,588,0.4634271815900234
589,5.03549406003522,4.70401517236492,4.9377340113741575,1.7464109730194697,2.94771809994678,0.0,0,589,0.45379281870315524
590,5.009118644610923,4.70401517236492,5.57848429028106,2.9021101016434363,2.9691665192108148,0.0,0,590,0.495760934928105
591,5.019611018428566,3.2092504806153417,5.4033975837229695,3.83455474836509,2.48555668855391,0.0,0,591,0.46740325413669354
592,6.641909670422694,3.532680600667936,5.291094614098177,1.7464109730194697,2.48555668855391,0.0,0,592,0.4614362433840529
593,4.957771764610703,3.2092504806153417,5.4523071842039155,6.641909670422694,2.9691665192108148,0.0,0,593,0.5441943437524206
594,5.151858816727005,3.532680600667936,5.151858816727005,3.83455474836509,2.6778122174076993,0.0,0,594,0.4766891764920996
595,5.658211482751795,4.163446791002217,7.25966210626152,3.83455474836509,2.9691665192108148,0.0,0,595,0.5595298152798363
596,6.641909670422694,3.2092504806153417,5.742603670042167,3.656163654102936,3.5573102671766508,0.0,0,596,0.5342812338078018
597,5.140363177889176,3.3627555992256237,5.73393880891504,1.7464109730194697,2.48555668855391,0.0,0,597,0.43265448047615773
598,6.641909670422694,3.3627555992256237,7.658211482751795,4.393129248269142,2.94771809994678,0.0,0,598,0.5857360156094374
599,5.009118644610923,4.163446791002217,5.73393880891504,2.7415177121129175,3.347805257759652,0.0,0,599,0.4918472195381605
600,9.310288179331488,4.163446791002217,5.625790005059417,2.9021101016434363,2.94771809994678,0.0,0,600,0.5844623250165696
601,5.112018552195214,4.699790586503194,4.9377340113741575,1.7464109730194697,3.5573102671766508,0.0,0,601,0.4697667890052107
602,5.151858816727005,4.699790586503194,5.100834813702538,3.83455474836509,3.6459678869970475,0.0,0,602,0.5255145193142917
603,5.140363177889176,5.019611018428566,5.525186064121011,1.7464109730194697,3.5573102671766508,0.0,0,603,0.49168450958781795
604,6.641909670422694,4.319981575535332,5.601943263105049,2.9021101016434363,3.5573102671766508,0.0,0,604,0.5393416406398267
605,4.978091748990298,3.3627555992256237,5.73393880891504,6.641909670422694,2.793462554770351,0.0,0,605,0.5507478182767983
606,5.658211482751795,3.2092504806153417,7.658211482751795,2.7415177121129175,3.6459678869970475,0.0,0,606,0.5367625410587158
607,6.658211482751795,4.319981575535332,6.175128596049852,4.393129248269142,2.9691665192108148,0.0,0,607,0.5743016524689044
608,4.67055987517944,3.2092504806153417,5.151858816727005,2.7415177121129175,2.94771809994678,0.0,0,608,0.43855500285261306
609,4.993521789559904,4.70401517236492,5.4523071842039155,1.7464109730194697,2.48555668855391,0.0,0,609,0.45403737370689046
610,5.169275869804414,3.2092504806153417,5.813862353211989,3.656163654102936,3.5573102671766508,0.0,0,610,0.5014526889732248
611,5.03549406003522,5.067794551938531,4.9377340113741575,4.393129248269142,2.48555668855391,0.0,0,611,0.5134900186743898
612,5.163446791002217,5.540214273353343,5.525186064121011,2.7415177121129175,2.793462554770351,0.0,0,612,0.5098383541456337
613,5.123289664530234,5.046180738832468,4.9377340113741575,2.9021101016434363,3.6459678869970475,0.0,0,613,0.5072955844821091
614,5.151858816727005,5.222825338081148,5.05155391093132,1.7464109730194697,3.6459678869970475,0.0,0,614,0.4876958999995954
615,5.009118644610923,3.2534569567348117,5.625790005059417,2.7415177121129175,2.6778122174076993,0.0,0,615,0.4523011295559227
616,5.410283969308209,3.2092504806153417,5.601943263105049,1.7464109730194697,3.5573102671766508,0.0,0,616,0.4573963539519953
617,5.658211482751795,3.2534569567348117,5.151858816727005,1.7464109730194697,2.6778122174076993,0.0,0,617,0.433093136071285
618,4.978091748990298,3.532680600667936,5.609848461190396,3.83455474836509,3.5573102671766508,0.0,0,618,0.5039504388665823
619,5.151858816727005,5.540214273353343,5.175128596049852,3.6039155054366545,2.48555668855391,0.0,0,619,0.5143559664482493
620,4.978091748990298,5.222825338081148,5.228899852490833,4.393129248269142,2.48555668855391,0.0,0,620,0.5225978952752753
621,5.123289664530234,4.163446791002217,5.725325678610332,2.9021101016434363,2.94771809994678,0.0,0,621,0.48870962078133856
622,5.151858816727005,4.699790586503194,5.699790586503194,1.7464109730194697,2.48555668855391,0.0,0,622,0.46344513826115163
623,4.67055987517944,3.2534569567348117,7.163446791002217,1.7464109730194697,2.94771809994678,0.0,0,623,0.4634026212043198
624,5.57848429028106,3.2534569567348117,5.525186064121011,3.656163654102936,3.6459678869970475,0.0,0,624,0.507388736578248
625,5.410283969308209,3.2092504806153417,5.650037551306094,1.7464109730194697,3.5573102671766508,0.0,0,625,0.45852300839079374
626,6.641909670422694,3.917970756552728,6.641909670422694,2.7415177121129175,2.48555668855391,0.0,0,626,0.525417480727075
627,5.157641169321011,4.699790586503194,6.832240882526844,4.393129248269142,2.48555668855391,0.0,0,627,0.5521112131427204
628,4.637862837359992,3.917970756552728,5.716763665106908,3.656163654102936,3.6459678869970475,0.0,0,628,0.5054085397192849
629,5.410283969308209,4.319981575535332,5.525186064121011,3.656163654102936,3.5573102671766508,0.0,0,629,0.5263559485039316
630,5.683014873752367,3.3627555992256237,6.175128596049852,3.6039155054366545,3.347805257759652,0.0,0,630,0.5194147057409656
631,5.157641169321011,3.2534569567348117,5.609848461190396,3.656163654102936,3.6459678869970475,0.0,0,631,0.4995133834130944
632,4.67055987517944,6.641909670422694,5.4033975837229695,1.7464109730194697,2.48555668855391,0.0,0,632,0.4907229513768042
633,5.609848461190396,3.3627555992256237,5.222825338081148,3.656163654102936,2.94771809994678,0.0,0,633,0.4872436439023733
634,4.978091748990298,3.532680600667936,5.650037551306094,2.7415177121129175,2.48555668855391,0.0,0,634,0.4541796276521225
635,5.151858816727005,4.413739527944428,6.869715587945507,1.7464109730194697,2.48555668855391,0.0,0,635,0.48415072593770325
636,5.151858816727005,3.917970756552728,4.9377340113741575,2.9021101016434363,2.48555668855391,0.0,0,636,0.4543517164034218
637,5.019611018428566,3.917970756552728,5.73393880891504,1.7464109730194697,2.94771809994678,0.0,0,637,0.4536587599532619
638,4.637862837359992,3.2534569567348117,5.151858816727005,3.6039155054366545,3.6459678869970475,0.0,0,638,0.47538427613706147
639,4.957771764610703,3.2534569567348117,5.459431618637297,1.7464109730194697,2.48555668855391,0.0,0,639,0.4193860863434785
640,5.683014873752367,3.532680600667936,5.742603670042167,3.656163654102936,3.347805257759652,0.0,0,640,0.514487015345899
641,5.140363177889176,3.2534569567348117,5.481018480845443,4.691378346686994,2.793462554770351,0.0,0,641,0.5003708057485308
642,4.9179707565527275,3.3627555992256237,5.813862353211989,3.656163654102936,3.5573102671766508,0.0,0,642,0.4991616310909124
643,4.645967886997048,3.917970756552728,5.151858816727005,1.7464109730194697,2.94771809994678,0.0,0,643,0.43127003688936716
644,5.609848461190396,3.2092504806153417,6.641909670422694,1.7464109730194697,2.9691665192108148,0.0,0,644,0.4726557174391161
645,5.609848461190396,3.532680600667936,5.175128596049852,2.7415177121129175,3.6459678869970475,0.0,0,645,0.48503767139590304
646,5.57848429028106,4.382933481163254,5.100834813702538,3.6039155054366545,2.9691665192108148,0.0,0,646,0.5068282884470664
647,6.641909670422694,3.3627555992256237,5.699790586503194,2.7415177121129175,2.793462554770351,0.0,0,647,0.4975539898950908
648,5.03549406003522,5.046180738832468,5.459431618637297,4.393129248269142,2.6778122174076993,0.0,0,648,0.5297087257309169
649,4.645967886997048,3.2534569567348117,5.650037551306094,4.691378346686994,2.6778122174076993,0.0,0,649,0.4900393392157547
650,5.169275869804414,3.532680600667936,5.813862353211989,3.782252746695167,2.48555668855391,0.0,0,650,0.48687625720503913
651,5.140363177889176,3.532680600667936,5.291094614098177,4.691378346686994,2.94771809994678,0.0,0,651,0.506076320796085
652,6.641909670422694,4.163446791002217,5.05155391093132,6.641909670422694,3.347805257759652,0.0,0,652,0.6054817778170312
653,5.169275869804414,3.532680600667936,5.05155391093132,1.7464109730194697,3.6459678869970475,0.0,0,653,0.4485106632292731
654,5.140363177889176,4.70401517236492,5.05155391093132,1.7464109730194697,2.9691665192108148,0.0,0,654,0.4594182665280776
655,6.641909670422694,3.3627555992256237,5.05155391093132,2.7415177121129175,2.6778122174076993,0.0,0,655,0.4796592101602176
656,4.957771764610703,3.2092504806153417,5.777793098504468,2.7415177121129175,2.94771809994678,0.0,0,656,0.4599463203155839
657,4.9179707565527275,5.222825338081148,5.813862353211989,1.7464109730194697,2.793462554770351,0.0,0,657,0.4801039018380985
658,5.151858816727005,3.532680600667936,5.978091748990298,3.782252746695167,2.94771809994678,0.0,0,658,0.5011420465289911
659,5.410283969308209,4.319981575535332,5.175128596049852,4.393129248269142,2.48555668855391,0.0,0,659,0.5103127924901468
660,4.9179707565527275,3.2534569567348117,4.9377340113741575,3.6039155054366545,2.793462554770351,0.0,0,660,0.45695924518837827
661,6.641909670422694,3.532680600667936,5.725325678610332,4.691378346686994,2.48555668855391,0.0,0,661,0.5405971804175981
662,5.151858816727005,4.795715006501729,5.151858816727005,2.9021101016434363,3.347805257759652,0.0,0,662,0.5001287801242239
663,5.169275869804414,5.540214273353343,5.742603670042167,2.7415177121129175,2.94771809994678,0.0,0,663,0.518681702885821
664,5.417203383248,3.2092504806153417,5.4523071842039155,1.7464109730194697,3.5573102671766508,0.0,0,664,0.45405308035166536
665,4.637862837359992,4.319981575535332,6.832240882526844,1.7464109730194697,2.793462554770351,0.0,0,665,0.4762486192334337
666,5.417203383248,3.532680600667936,5.73393880891504,3.83455474836509,2.9691665192108148,0.0,0,666,0.5033661542787888
667,5.123289664530234,3.532680600667936,5.481018480845443,3.6039155054366545,2.48555668855391,0.0,0,667,0.47382408289346156
668,4.9179707565527275,3.3627555992256237,5.284753087224351,1.7464109730194697,3.6459678869970475,0.0,0,668,0.4441058596797261
669,5.009118644610923,5.046180738832468,5.4033975837229695,1.7464109730194697,2.6778122174076993,0.0,0,669,0.4657763133573557
670,5.03549406003522,3.3627555992256237,5.73393880891504,3.656163654102936,2.6778122174076993,0.0,0,670,0.47943936298835516
671,8.658211482751796,4.70401517236492,5.57848429028106,3.83455474836509,2.9691665192108148,0.0,0,671,0.6030878075551527
672,4.637862837359992,4.319981575535332,6.96789598188441,3.656163654102936,3.347805257759652,0.0,0,672,0.5371502466716311
673,5.123289664530234,5.716763665106908,6.084220099851642,3.6039155054366545,2.48555668855391,0.0,0,673,0.5391188773121124
674,5.140363177889176,3.2534569567348117,5.699790586503194,2.9021101016434363,2.793462554770351,0.0,0,674,0.4635804401409059
675,5.151858816727005,5.019611018428566,6.641909670422694,1.7464109730194697,2.793462554770351,0.0,0,675,0.5002202592595798
676,6.641909670422694,4.699790586503194,5.1289584146169265,2.9021101016434363,3.5573102671766508,0.0,0,676,0.5371589080356526
677,6.641909670422694,4.795715006501729,6.175128596049852,1.7464109730194697,3.347805257759652,0.0,0,677,0.5319323549633085
678,4.645967886997048,3.2092504806153417,5.609848461190396,2.9021101016434363,2.48555668855391,0.0,0,678,0.4416432139829586
679,6.641909670422694,3.2092504806153417,4.9377340113741575,1.7464109730194697,2.48555668855391,0.0,0,679,0.4455817770747387
680,7.25966210626152,6.96789598188441,5.609848461190396,3.83455474836509,2.793462554770351,0.0,0,680,0.6199777223737584
681,5.140363177889176,3.2534569567348117,5.625790005059417,3.656163654102936,2.48555668855391,0.0,0,681,0.4722983399828877
682,4.993521789559904,4.163446791002217,4.9377340113741575,4.393129248269142,2.48555668855391,0.0,0,682,0.4913215719878105
683,7.658211482751795,3.532680600667936,5.525186064121011,3.782252746695167,2.94771809994678,0.0,0,683,0.5492459948915319
684,5.342856041787918,5.100834813702538,6.175128596049852,6.641909670422694,2.94771809994678,0.0,0,684,0.6139578004179564
685,4.637862837359992,3.2534569567348117,5.73393880891504,2.7415177121129175,2.6778122174076993,0.0,0,685,0.44613759778651285
686,4.993521789559904,3.3627555992256237,6.869715587945507,1.7464109730194697,2.793462554770351,0.0,0,686,0.4630342202160533
687,5.019611018428566,3.532680600667936,5.4033975837229695,1.7464109730194697,2.48555668855391,0.0,0,687,0.4260631585179999
688,5.157641169321011,3.917970756552728,5.05155391093132,3.6039155054366545,2.48555668855391,0.0,0,688,0.4735939719029575
689,4.67055987517944,3.532680600667936,6.658211482751795,3.6039155054366545,3.5573102671766508,0.0,0,689,0.5159021694297637
690,5.57848429028106,4.413739527944428,5.813862353211989,2.9021101016434363,3.5573102671766508,0.0,0,690,0.5215906652119481
691,4.957771764610703,3.3627555992256237,6.084220099851642,3.6039155054366545,2.6778122174076993,0.0,0,691,0.4846003540914293
692,5.342856041787918,3.532680600667936,5.05155391093132,3.6039155054366545,2.793462554770351,0.0,0,692,0.47612000585194486
693,5.658211482751795,3.2092504806153417,6.641909670422694,3.782252746695167,3.347805257759652,0.0,0,693,0.5303501693833246
694,5.123289664530234,3.917970756552728,5.601943263105049,4.691378346686994,2.9691665192108148,0.0,0,694,0.5224865206603431
695,5.157641169321011,4.70401517236492,5.1289584146169265,2.9021101016434363,2.793462554770351,0.0,0,695,0.4845936127161241
696,4.957771764610703,3.2534569567348117,6.445217759417596,1.7464109730194697,2.793462554770351,0.0,0,696,0.44969205190903905
697,4.9179707565527275,4.699790586503194,5.4033975837229695,1.7464109730194697,3.347805257759652,0.0,0,697,0.47122179279633
698,6.625790005059417,4.70401517236492,5.05155391093132,4.393129248269142,2.6778122174076993,0.0,0,698,0.5493924436262497
699,5.163446791002217,3.2534569567348117,5.4033975837229695,2.7415177121129175,3.6459678869970475,0.0,0,699,0.47338662646277124
700,5.151858816727005,3.917970756552728,5.57848429028106,1.7464109730194697,2.793462554770351,0.0,0,700,0.4495015376169522
701,5.03549406003522,3.3627555992256237,5.650037551306094,2.7415177121129175,3.347805257759652,0.0,0,701,0.4717426693528454
702,6.641909670422694,4.413739527944428,5.650037551306094,1.7464109730194697,2.9691665192108148,0.0,0,702,0.5018134864982108
703,5.140363177889176,3.2534569567348117,5.699790586503194,4.691378346686994,2.94771809994678,0.0,0,703,0.5091093332187797
704,4.645967886997048,4.413739527944428,5.601943263105049,1.7464109730194697,2.48555668855391,0.0,0,704,0.44260097744486393
705,4.957771764610703,3.2534569567348117,6.658211482751795,2.7415177121129175,2.48555668855391,0.0,0,705,0.47077996641073944
706,5.674699605540364,3.917970756552728,5.742603670042167,2.9021101016434363,3.5573102671766508,0.0,0,706,0.5105614431062442
707,5.417203383248,7.05155391093132,5.525186064121011,2.9021101016434363,2.793462554770351,0.0,0,707,0.5549494413847231
708,4.9179707565527275,3.2534569567348117,6.96789598188441,3.656163654102936,2.48555668855391,0.0,0,708,0.4985286948682857
709,5.163446791002217,3.3627555992256237,7.658211482751795,2.9021101016434363,2.94771809994678,0.0,0,709,0.516173075170606
710,5.151858816727005,4.413739527944428,6.641909670422694,2.9021101016434363,2.793462554770351,0.0,0,710,0.5131004945693286
711,5.140363177889176,5.046180738832468,5.57848429028106,2.7415177121129175,3.5573102671766508,0.0,0,711,0.5168668139007366
712,4.957771764610703,4.163446791002217,5.175128596049852,1.7464109730194697,3.347805257759652,0.0,0,712,0.45424238766792113
713,4.957771764610703,3.532680600667936,5.650037551306094,1.7464109730194697,3.6459678869970475,0.0,0,713,0.4575760268585959
714,5.169275869804414,5.046180738832468,5.481018480845443,3.782252746695167,3.6459678869970475,0.0,0,714,0.5417179889110654
715,5.03549406003522,5.067794551938531,4.9377340113741575,2.9021101016434363,2.94771809994678,0.0,0,715,0.48938804778240635
716,5.658211482751795,4.163446791002217,5.813862353211989,2.7415177121129175,2.94771809994678,0.0,0,716,0.49955269943683567
717,5.502933257273884,3.2534569567348117,5.228899852490833,1.7464109730194697,2.6778122174076993,0.0,0,717,0.4312603554986311
718,5.123289664530234,4.382933481163254,5.777793098504468,1.7464109730194697,2.6778122174076993,0.0,0,718,0.46168425130037727
719,5.019611018428566,3.532680600667936,5.57848429028106,3.656163654102936,2.48555668855391,0.0,0,719,0.47490250385666877
720,5.658211482751795,3.3627555992256237,5.57848429028106,2.7415177121129175,2.94771809994678,0.0,0,720,0.4752817918429996
721,5.658211482751795,4.699790586503194,5.228899852490833,2.9021101016434363,3.347805257759652,0.0,0,721,0.5115482116336558
722,6.641909670422694,3.2092504806153417,6.641909670422694,1.7464109730194697,2.9691665192108148,0.0,0,722,0.496832732756042
723,5.03549406003522,4.319981575535332,6.641909670422694,1.7464109730194697,2.793462554770351,0.0,0,723,0.48110481912346165
724,5.502933257273884,3.3627555992256237,5.73393880891504,1.7464109730194697,3.347805257759652,0.0,0,724,0.4613470221224571
725,4.993521789559904,4.413739527944428,5.4033975837229695,3.83455474836509,3.347805257759652,0.0,0,725,0.5152073832752788
726,5.163446791002217,5.046180738832468,5.291094614098177,3.6039155054366545,2.793462554770351,0.0,0,726,0.5129838223848053
727,5.140363177889176,3.2092504806153417,5.4033975837229695,2.7415177121129175,2.48555668855391,0.0,0,727,0.44462655625451003
728,5.140363177889176,3.2534569567348117,5.4523071842039155,3.782252746695167,2.94771809994678,0.0,0,728,0.4820146674044459
729,4.9179707565527275,5.222825338081148,5.228899852490833,1.7464109730194697,3.5573102671766508,0.0,0,729,0.48429445804173715
730,5.502933257273884,4.795715006501729,6.832240882526844,3.83455474836509,3.6459678869970475,0.0,0,730,0.5765457264488139
731,5.046180738832468,6.96789598188441,5.284753087224351,2.7415177121129175,2.793462554770351,0.0,0,731,0.5349037159660873
732,5.169275869804414,3.917970756552728,6.641909670422694,3.6039155054366545,3.347805257759652,0.0,0,732,0.531321114653901
733,5.019611018428566,4.319981575535332,5.222825338081148,1.7464109730194697,2.48555668855391,0.0,0,733,0.4402763559993945
734,5.502933257273884,4.413739527944428,5.4523071842039155,2.9021101016434363,2.793462554770351,0.0,0,734,0.49345717765892777
735,5.140363177889176,4.699790586503194,5.228899852490833,1.7464109730194697,2.793462554770351,0.0,0,735,0.45935776646221826
736,5.157641169321011,3.3627555992256237,5.699790586503194,4.691378346686994,3.6459678869970475,0.0,0,736,0.5284316765403559
737,4.978091748990298,5.067794551938531,5.650037551306094,3.83455474836509,2.94771809994678,0.0,0,737,0.5265731344851583
738,5.674699605540364,3.2534569567348117,5.57848429028106,3.6039155054366545,2.6778122174076993,0.0,0,738,0.48698730362632564
739,6.641909670422694,3.3627555992256237,6.641909670422694,6.641909670422694,2.6778122174076993,0.0,0,739,0.6082851971531801
740,5.151858816727005,5.100834813702538,5.1289584146169265,3.6039155054366545,2.793462554770351,0.0,0,740,0.5101944920826759
741,5.157641169321011,4.413739527944428,5.100834813702538,4.393129248269142,2.9691665192108148,0.0,0,741,0.516179381527463
742,6.641909670422694,4.795715006501729,5.725325678610332,4.393129248269142,2.6778122174076993,0.0,0,742,0.5677019623535555
743,5.03549406003522,4.319981575535332,5.100834813702538,1.7464109730194697,3.5573102671766508,0.0,0,743,0.4628975341245568
744,5.674699605540364,4.413739527944428,6.084220099851642,2.9021101016434363,2.48555668855391,0.0,0,744,0.505071140980715
745,5.410283969308209,5.019611018428566,5.978091748990298,1.7464109730194697,3.347805257759652,0.0,0,745,0.5037095531182173
746,4.645967886997048,4.382933481163254,5.716763665106908,2.7415177121129175,2.9691665192108148,0.0,0,746,0.47920943552010054
747,4.993521789559904,5.540214273353343,5.625790005059417,2.9021101016434363,2.793462554770351,0.0,0,747,0.5119764718271557
748,5.140363177889176,4.413739527944428,5.151858816727005,1.7464109730194697,2.6778122174076993,0.0,0,748,0.4481427697157304
749,5.112018552195214,3.917970756552728,5.777793098504468,1.7464109730194697,2.6778122174076993,0.0,0,749,0.4505280207713415
750,5.502933257273884,3.2534569567348117,5.4523071842039155,2.9021101016434363,2.6778122174076993,0.0,0,750,0.46356723586287074
751,5.57848429028106,3.532680600667936,5.175128596049852,3.782252746695167,3.347805257759652,0.0,0,751,0.5016984006468956
752,5.163446791002217,3.2534569567348117,6.641909670422694,3.6039155054366545,2.6778122174076993,0.0,0,752,0.49992247109193766
753,5.03549406003522,3.2092504806153417,5.978091748990298,1.7464109730194697,3.6459678869970475,0.0,0,753,0.4595050689588723
754,5.410283969308209,3.2534569567348117,8.658211482751796,1.7464109730194697,3.347805257759652,0.0,0,754,0.5251200681681562
755,4.637862837359992,3.2534569567348117,5.4523071842039155,1.7464109730194697,2.793462554770351,0.0,0,755,0.41893800657189223
756,6.641909670422694,5.222825338081148,5.1289584146169265,3.782252746695167,3.6459678869970475,0.0,0,756,0.572106562031746
757,5.502933257273884,4.319981575535332,5.716763665106908,3.6039155054366545,2.6778122174076993,0.0,0,757,0.5111871928881315
758,5.151858816727005,4.795715006501729,5.525186064121011,2.7415177121129175,2.48555668855391,0.0,0,758,0.48491330374820923
759,4.637862837359992,3.532680600667936,6.272153050444717,3.6039155054366545,2.6778122174076993,0.0,0,759,0.4854893460865495
760,4.67055987517944,4.319981575535332,5.813862353211989,3.656163654102936,3.5573102671766508,0.0,0,760,0.5157897247242624
761,4.637862837359992,5.540214273353343,5.100834813702538,2.9021101016434363,2.793462554770351,0.0,0,761,0.4913472480499039
762,5.157641169321011,5.716763665106908,5.222825338081148,2.9021101016434363,3.5573102671766508,0.0,0,762,0.528410990315122
763,4.67055987517944,4.163446791002217,5.699790586503194,1.7464109730194697,2.48555668855391,0.0,0,763,0.43960588936710354
764,4.67055987517944,4.163446791002217,5.481018480845443,3.782252746695167,3.347805257759652,0.0,0,764,0.5023714671068787
765,4.645967886997048,4.699790586503194,5.609848461190396,2.9021101016434363,2.6778122174076993,0.0,0,765,0.4810643020661629
766,6.641909670422694,4.319981575535332,5.978091748990298,1.7464109730194697,3.5573102671766508,0.0,0,766,0.5210799254806715
767,4.978091748990298,4.699790586503194,5.100834813702538,4.393129248269142,2.94771809994678,0.0,0,767,0.5181718340673434
768,4.957771764610703,4.413739527944428,6.658211482751795,2.7415177121129175,3.347805257759652,0.0,0,768,0.5181596818029645
769,5.674699605540364,5.019611018428566,6.832240882526844,2.9021101016434363,2.793462554770351,0.0,0,769,0.5440003427663468
770,5.151858816727005,4.413739527944428,4.9377340113741575,1.7464109730194697,2.48555668855391,0.0,0,770,0.43889222019119883
771,5.123289664530234,3.532680600667936,5.151858816727005,2.7415177121129175,2.48555668855391,0.0,0,771,0.4459107162812178
772,4.993521789559904,4.382933481163254,6.641909670422694,1.7464109730194697,2.793462554770351,0.0,0,772,0.4815962870285535
773,4.645967886997048,4.413739527944428,5.725325678610332,1.7464109730194697,2.793462554770351,0.0,0,773,0.45270431559953905
774,4.645967886997048,4.382933481163254,6.658211482751795,1.7464109730194697,2.94771809994678,0.0,0,774,0.4774499746367943
775,6.641909670422694,4.319981575535332,5.4033975837229695,2.9021101016434363,3.347805257759652,0.0,0,775,0.5297826651983256
776,7.389722646825892,3.2092504806153417,5.291094614098177,2.7415177121129175,3.347805257759652,0.0,0,776,0.5148881298249625
777,5.151858816727005,4.163446791002217,5.650037551306094,1.7464109730194697,2.6778122174076993,0.0,0,777,0.45421903122219964
778,5.502933257273884,3.3627555992256237,5.4033975837229695,4.691378346686994,2.94771809994678,0.0,0,778,0.5132200188160724
779,5.658211482751795,4.795715006501729,5.699790586503194,2.7415177121129175,2.9691665192108148,0.0,0,779,0.5121943936735228
780,5.683014873752367,5.100834813702538,7.389722646825892,3.782252746695167,3.6459678869970475,0.0,0,780,0.599746347591028
781,5.163446791002217,4.699790586503194,5.284753087224351,3.6039155054366545,3.5573102671766508,0.0,0,781,0.522614606434117
782,5.151858816727005,5.100834813702538,4.9377340113741575,2.9021101016434363,3.6459678869970475,0.0,0,782,0.5092451677214751
783,4.637862837359992,5.222825338081148,5.742603670042167,2.7415177121129175,2.48555668855391,0.0,0,783,0.48797113900343697
784,5.658211482751795,4.382933481163254,6.445217759417596,1.7464109730194697,2.9691665192108148,0.0,0,784,0.4966756126039384
785,4.978091748990298,5.222825338081148,5.291094614098177,3.83455474836509,3.347805257759652,0.0,0,785,0.531168720580737
786,4.993521789559904,4.163446791002217,5.4033975837229695,1.7464109730194697,2.48555668855391,0.0,0,786,0.44022829138838565
787,6.247278381805687,5.100834813702538,5.691378346686994,2.7415177121129175,2.793462554770351,0.0,0,787,0.5288284704601834
788,4.645967886997048,4.163446791002217,5.73393880891504,4.393129248269142,2.6778122174076993,0.0,0,788,0.5063354144683588
789,4.957771764610703,4.319981575535332,5.699790586503194,2.7415177121129175,3.347805257759652,0.0,0,789,0.4935113916506147
790,5.009118644610923,5.067794551938531,5.609848461190396,4.393129248269142,3.6459678869970475,0.0,0,790,0.5558008055282094
791,5.169275869804414,4.699790586503194,5.625790005059417,1.7464109730194697,2.9691665192108148,0.0,0,791,0.4734486354945069
792,4.9179707565527275,3.532680600667936,5.291094614098177,3.83455474836509,2.9691665192108148,0.0,0,792,0.4812971088193996
793,5.019611018428566,4.70401517236492,6.175128596049852,3.656163654102936,2.48555668855391,0.0,0,793,0.5163190904099868
794,5.417203383248,4.70401517236492,6.641909670422694,1.7464109730194697,2.9691665192108148,0.0,0,794,0.5031591077088691
795,5.140363177889176,5.019611018428566,5.222825338081148,2.7415177121129175,2.6778122174076993,0.0,0,795,0.48730966552649224
796,5.112018552195214,5.100834813702538,5.175128596049852,1.7464109730194697,3.347805257759652,0.0,0,796,0.4798149712440233
797,5.683014873752367,3.2092504806153417,6.362755599225624,3.83455474836509,3.6459678869970475,0.0,0,797,0.5326017300831346
798,5.03549406003522,5.100834813702538,5.228899852490833,3.6039155054366545,2.9691665192108148,0.0,0,798,0.5139257926823482
799,4.993521789559904,4.413739527944428,5.525186064121011,1.7464109730194697,2.48555668855391,0.0,0,799,0.44894464775398074
800,5.140363177889176,4.699790586503194,5.291094614098177,4.393129248269142,2.48555668855391,0.0,0,800,0.5156036427933385
801,5.417203383248,6.96789598188441,5.4523071842039155,2.7415177121129175,2.793462554770351,0.0,0,801,0.547520388319983
802,5.151858816727005,4.163446791002217,5.601943263105049,1.7464109730194697,3.347805257759652,0.0,0,802,0.4687876009173188
803,5.03549406003522,3.2534569567348117,5.481018480845443,3.6039155054366545,3.6459678869970475,0.0,0,803,0.4924100438386529
804,5.123289664530234,5.540214273353343,5.151858816727005,1.7464109730194697,2.48555668855391,0.0,0,804,0.4696277800190641
805,5.502933257273884,5.100834813702538,6.445217759417596,1.7464109730194697,3.6459678869970475,0.0,0,805,0.5257103096204588
806,5.123289664530234,4.70401517236492,5.525186064121011,3.782252746695167,2.6778122174076993,0.0,0,806,0.5109798648905387
807,5.046180738832468,3.2092504806153417,6.869715587945507,2.9021101016434363,2.793462554770351,0.0,0,807,0.4877451539529572
808,5.112018552195214,5.019611018428566,5.742603670042167,4.691378346686994,3.6459678869970475,0.0,0,808,0.5671792744092709
809,5.151858816727005,4.382933481163254,7.658211482751795,2.7415177121129175,2.6778122174076993,0.0,0,809,0.5297154214997648
810,6.641909670422694,4.382933481163254,5.650037551306094,2.7415177121129175,2.6778122174076993,0.0,0,810,0.5175778956681982
811,5.123289664530234,4.795715006501729,5.716763665106908,4.691378346686994,2.48555668855391,0.0,0,811,0.5344092713654105
812,5.151858816727005,3.2092504806153417,5.525186064121011,1.7464109730194697,3.5573102671766508,0.0,0,812,0.4495443886080172
813,5.342856041787918,4.382933481163254,6.658211482751795,3.656163654102936,2.793462554770351,0.0,0,813,0.534899432290872
814,6.247278381805687,3.2534569567348117,5.222825338081148,3.83455474836509,2.48555668855391,0.0,0,814,0.4929680318010325
815,6.625790005059417,3.532680600667936,5.609848461190396,2.7415177121129175,2.9691665192108148,0.0,0,815,0.5031660788027957
816,4.993521789559904,3.2534569567348117,5.459431618637297,1.7464109730194697,2.94771809994678,0.0,0,816,0.43105013525378416
817,4.957771764610703,5.100834813702538,5.525186064121011,1.7464109730194697,3.5573102671766508,0.0,0,817,0.4893098767354137
818,5.410283969308209,3.532680600667936,5.525186064121011,1.7464109730194697,3.5573102671766508,0.0,0,818,0.46317490171408154
819,5.169275869804414,5.019611018428566,5.1289584146169265,1.7464109730194697,2.6778122174076993,0.0,0,819,0.46247672917074867
820,5.410283969308209,3.917970756552728,5.691378346686994,1.7464109730194697,2.793462554770351,0.0,0,820,0.45820004321220537
821,5.019611018428566,4.795715006501729,6.445217759417596,1.7464109730194697,2.9691665192108148,0.0,0,821,0.49138558920431125
822,6.625790005059417,3.2534569567348117,5.151858816727005,1.7464109730194697,3.347805257759652,0.0,0,822,0.47145480725785466
823,6.641909670422694,4.382933481163254,5.978091748990298,3.83455474836509,3.6459678869970475,0.0,0,823,0.573548276558134
824,5.410283969308209,3.2534569567348117,5.222825338081148,4.691378346686994,2.94771809994678,0.0,0,824,0.5042591199141155
825,5.417203383248,3.532680600667936,5.699790586503194,2.9021101016434363,3.6459678869970475,0.0,0,825,0.49657751276788514
826,5.157641169321011,4.699790586503194,5.4033975837229695,2.7415177121129175,2.793462554770351,0.0,0,826,0.4871616168546238
827,5.123289664530234,3.3627555992256237,5.100834813702538,4.393129248269142,2.9691665192108148,0.0,0,827,0.49075436684303114
828,5.57848429028106,3.2534569567348117,5.100834813702538,1.7464109730194697,2.9691665192108148,0.0,0,828,0.4368554165701719
829,5.151858816727005,4.319981575535332,7.05155391093132,2.7415177121129175,2.6778122174076993,0.0,0,829,0.5140291826916314
830,4.67055987517944,3.917970756552728,5.228899852490833,3.6039155054366545,3.6459678869970475,0.0,0,830,0.4935218625853531
831,5.123289664530234,4.163446791002217,5.228899852490833,4.393129248269142,2.6778122174076993,0.0,0,831,0.5056861131937875
832,4.9179707565527275,5.019611018428566,6.272153050444717,1.7464109730194697,3.5573102671766508,0.0,0,832,0.5039731676432843
833,5.112018552195214,3.2534569567348117,6.084220099851642,4.691378346686994,2.6778122174076993,0.0,0,833,0.5111281583698796
834,4.67055987517944,3.532680600667936,5.1289584146169265,2.9021101016434363,2.793462554770351,0.0,0,834,0.44574364390464544
835,5.123289664530234,3.532680600667936,5.222825338081148,1.7464109730194697,2.48555668855391,0.0,0,835,0.42426185282292517
836,5.658211482751795,7.05155391093132,5.978091748990298,6.641909670422694,2.6778122174076993,0.0,0,836,0.6561041740094048
837,6.641909670422694,5.222825338081148,5.813862353211989,3.6039155054366545,3.347805257759652,0.0,0,837,0.5769886255193282
838,5.123289664530234,5.540214273353343,5.813862353211989,6.641909670422694,2.6778122174076993,0.0,0,838,0.6043213236334314
839,5.169275869804414,5.019611018428566,5.813862353211989,3.83455474836509,3.5573102671766508,0.0,0,839,0.5480410872582585
840,5.683014873752367,3.3627555992256237,5.625790005059417,3.782252746695167,2.793462554770351,0.0,0,840,0.4977376413033739
841,5.046180738832468,5.019611018428566,5.57848429028106,3.6039155054366545,2.9691665192108148,0.0,0,841,0.520462741558241
842,5.169275869804414,3.3627555992256237,5.525186064121011,2.9021101016434363,2.9691665192108148,0.0,0,842,0.46684392756419196
843,5.123289664530234,4.699790586503194,6.272153050444717,1.7464109730194697,2.9691665192108148,0.0,0,843,0.48751303393274625
844,5.140363177889176,4.795715006501729,5.73393880891504,3.83455474836509,2.6778122174076993,0.0,0,844,0.5196434396982231
845,6.641909670422694,3.2534569567348117,5.813862353211989,3.782252746695167,2.6778122174076993,0.0,0,845,0.5193367936574592
846,6.641909670422694,3.532680600667936,5.978091748990298,1.7464109730194697,3.5573102671766508,0.0,0,846,0.5026366514208329
847,5.046180738832468,3.2534569567348117,5.57848429028106,2.9021101016434363,3.5573102671766508,0.0,0,847,0.4764262706697426
848,5.658211482751795,3.2534569567348117,5.4523071842039155,3.656163654102936,2.9691665192108148,0.0,0,848,0.49169444913377724
849,6.247278381805687,4.319981575535332,4.9377340113741575,3.782252746695167,2.94771809994678,0.0,0,849,0.5208751962609616
850,4.637862837359992,3.2534569567348117,5.1289584146169265,2.7415177121129175,2.94771809994678,0.0,0,850,0.438288158692551
851,5.140363177889176,4.319981575535332,5.716763665106908,3.656163654102936,2.793462554770351,0.0,0,851,0.5066268256810025
852,4.637862837359992,4.319981575535332,5.978091748990298,2.9021101016434363,3.347805257759652,0.0,0,852,0.4962987196402096
853,5.123289664530234,4.413739527944428,5.4033975837229695,4.691378346686994,3.347805257759652,0.0,0,853,0.5383192267860701
854,5.112018552195214,4.163446791002217,5.05155391093132,3.782252746695167,3.5573102671766508,0.0,0,854,0.5075602945570843
855,4.645967886997048,4.699790586503194,4.9377340113741575,1.7464109730194697,2.6778122174076993,0.0,0,855,0.4382460307396922
856,6.641909670422694,3.2092504806153417,5.699790586503194,3.83455474836509,2.94771809994678,0.0,0,856,0.5231770014039633
857,4.637862837359992,3.3627555992256237,5.459431618637297,3.6039155054366545,2.793462554770351,0.0,0,857,0.4651791380267299
858,4.978091748990298,6.641909670422694,5.57848429028106,1.7464109730194697,2.9691665192108148,0.0,0,858,0.5133577707887246
859,4.67055987517944,5.716763665106908,8.658211482751796,3.656163654102936,2.6778122174076993,0.0,0,859,0.5945391786307166
860,5.417203383248,3.3627555992256237,5.525186064121011,4.393129248269142,3.5573102671766508,0.0,0,860,0.5213582334364061
861,5.342856041787918,3.3627555992256237,7.25966210626152,3.656163654102936,3.347805257759652,0.0,0,861,0.5380763530500696
862,5.169275869804414,4.70401517236492,8.658211482751796,1.7464109730194697,2.94771809994678,0.0,0,862,0.5440825077662744
863,5.123289664530234,3.3627555992256237,5.525186064121011,2.9021101016434363,2.9691665192108148,0.0,0,863,0.4657666569727431
864,4.637862837359992,5.046180738832468,5.601943263105049,2.9021101016434363,2.48555668855391,0.0,0,864,0.48429999692452036
865,5.417203383248,5.222825338081148,5.525186064121011,3.83455474836509,2.6778122174076993,0.0,0,865,0.5312439189125173
866,5.03549406003522,5.067794551938531,5.73393880891504,3.782252746695167,2.48555668855391,0.0,0,866,0.5178315102547048
867,5.502933257273884,4.382933481163254,5.699790586503194,1.7464109730194697,3.6459678869970475,0.0,0,867,0.4914304477541604
868,6.641909670422694,3.532680600667936,5.459431618637297,3.782252746695167,2.793462554770351,0.0,0,868,0.5202842151734458
869,5.112018552195214,4.382933481163254,5.625790005059417,3.656163654102936,2.9691665192108148,0.0,0,869,0.5094224220839556
870,5.112018552195214,5.716763665106908,6.084220099851642,1.7464109730194697,2.48555668855391,0.0,0,870,0.49534103062734
871,5.502933257273884,4.319981575535332,6.641909670422694,3.6039155054366545,2.94771809994678,0.0,0,871,0.5391824198559976
872,5.163446791002217,4.382933481163254,6.96789598188441,3.6039155054366545,2.9691665192108148,0.0,0,872,0.5408433237662612
873,4.645967886997048,4.70401517236492,5.525186064121011,2.9021101016434363,2.793462554770351,0.0,0,873,0.4818891889784714
874,5.046180738832468,4.163446791002217,6.175128596049852,2.9021101016434363,2.48555668855391,0.0,0,874,0.48661376139245605
875,5.57848429028106,4.163446791002217,6.272153050444717,2.7415177121129175,3.347805257759652,0.0,0,875,0.5177933317047712
876,5.151858816727005,3.2092504806153417,5.57848429028106,3.656163654102936,2.48555668855391,0.0,0,876,0.47042387615510645
877,5.342856041787918,3.3627555992256237,4.9377340113741575,2.7415177121129175,2.6778122174076993,0.0,0,877,0.446561304118981
878,4.993521789559904,4.163446791002217,5.100834813702538,1.7464109730194697,2.48555668855391,0.0,0,878,0.43314047076333095
879,6.625790005059417,5.019611018428566,5.4523071842039155,2.9021101016434363,2.48555668855391,0.0,0,879,0.5267412929269691
880,5.009118644610923,4.70401517236492,5.73393880891504,2.7415177121129175,2.94771809994678,0.0,0,880,0.49513812579752
881,5.140363177889176,3.532680600667936,5.699790586503194,1.7464109730194697,2.9691665192108148,0.0,0,881,0.4471642008450199
882,5.57848429028106,4.382933481163254,5.228899852490833,1.7464109730194697,3.347805257759652,0.0,0,882,0.4751844961472099
883,4.978091748990298,4.795715006501729,5.716763665106908,3.6039155054366545,2.793462554770351,0.0,0,883,0.5127460086114148
884,5.123289664530234,4.70401517236492,5.100834813702538,3.83455474836509,2.48555668855391,0.0,0,884,0.4977604888211147
885,5.123289664530234,4.163446791002217,6.641909670422694,3.6039155054366545,2.6778122174076993,0.0,0,885,0.5202991294833293
886,4.637862837359992,3.2092504806153417,5.291094614098177,3.6039155054366545,2.6778122174076993,0.0,0,886,0.4549304610837146
887,5.57848429028106,5.019611018428566,5.850856560694191,2.9021101016434363,2.793462554770351,0.0,0,887,0.5187565464697437
888,4.993521789559904,4.70401517236492,6.641909670422694,4.393129248269142,2.793462554770351,0.0,0,888,0.5511198236217365
889,5.157641169321011,4.699790586503194,5.4523071842039155,1.7464109730194697,2.6778122174076993,0.0,0,889,0.4622868299124938
890,5.123289664530234,4.70401517236492,6.641909670422694,2.9021101016434363,2.48555668855391,0.0,0,890,0.5120182302979243
891,5.140363177889176,3.2534569567348117,5.73393880891504,1.7464109730194697,2.9691665192108148,0.0,0,891,0.44142307602905134
892,5.019611018428566,3.917970756552728,6.084220099851642,1.7464109730194697,2.48555668855391,0.0,0,892,0.4510378617335305
893,6.625790005059417,4.413739527944428,5.601943263105049,2.9021101016434363,2.6778122174076993,0.0,0,893,0.5205573131290538
894,5.140363177889176,3.917970756552728,5.716763665106908,3.782252746695167,3.6459678869970475,0.0,0,894,0.5201338449789786
895,4.9179707565527275,3.3627555992256237,5.222825338081148,1.7464109730194697,2.48555668855391,0.0,0,895,0.4154714073876447
896,4.978091748990298,4.163446791002217,6.96789598188441,2.7415177121129175,2.793462554770351,0.0,0,896,0.507041000274596
897,5.502933257273884,5.067794551938531,5.05155391093132,2.7415177121129175,2.793462554770351,0.0,0,897,0.49562898261146954
898,5.03549406003522,3.2092504806153417,5.699790586503194,3.83455474836509,3.347805257759652,0.0,0,898,0.4949176101835197
899,5.342856041787918,3.3627555992256237,5.175128596049852,1.7464109730194697,2.48555668855391,0.0,0,899,0.4243074077186647
900,5.410283969308209,3.532680600667936,5.4523071842039155,4.691378346686994,3.347805257759652,0.0,0,900,0.5255484519526451
901,6.641909670422694,4.795715006501729,5.625790005059417,2.7415177121129175,2.793462554770351,0.0,0,901,0.5293888927606482
902,5.123289664530234,4.413739527944428,5.481018480845443,1.7464109730194697,2.48555668855391,0.0,0,902,0.4509499159928452
903,4.645967886997048,4.319981575535332,7.658211482751795,2.7415177121129175,2.793462554770351,0.0,0,903,0.5190989562479636
904,5.674699605540364,3.2534569567348117,5.978091748990298,2.7415177121129175,2.793462554770351,0.0,0,904,0.4788552190604127
905,5.046180738832468,6.641909670422694,5.813862353211989,1.7464109730194697,3.5573102671766508,0.0,0,905,0.5342446017182937
906,6.625790005059417,3.532680600667936,5.222825338081148,3.656163654102936,2.94771809994678,0.0,0,906,0.5150236954858922
907,7.389722646825892,3.2534569567348117,5.699790586503194,3.83455474836509,2.793462554770351,0.0,0,907,0.5381172274473026
908,7.658211482751795,3.2534569567348117,5.4033975837229695,1.7464109730194697,3.6459678869970475,0.0,0,908,0.508517540179107
909,5.502933257273884,3.2092504806153417,5.459431618637297,2.9021101016434363,3.347805257759652,0.0,0,909,0.478393777905254
910,5.009118644610923,5.222825338081148,6.272153050444717,1.7464109730194697,2.48555668855391,0.0,0,910,0.48576203548013924
911,5.140363177889176,3.917970756552728,5.525186064121011,3.656163654102936,2.9691665192108148,0.0,0,911,0.4968374849019592
912,4.637862837359992,3.917970756552728,6.272153050444717,3.656163654102936,2.793462554770351,0.0,0,912,0.49844831610601786
913,5.112018552195214,4.413739527944428,5.73393880891504,3.83455474836509,2.6778122174076993,0.0,0,913,0.5100313010415395
914,5.123289664530234,4.699790586503194,5.699790586503194,1.7464109730194697,2.793462554770351,0.0,0,914,0.4699888664363991
915,6.641909670422694,3.2092504806153417,6.658211482751795,3.6039155054366545,2.793462554770351,0.0,0,915,0.5366123959108089
916,4.978091748990298,3.2092504806153417,5.1289584146169265,3.656163654102936,2.793462554770351,0.0,0,916,0.46303563393881414
917,5.157641169321011,4.319981575535332,5.05155391093132,1.7464109730194697,3.5573102671766508,0.0,0,917,0.46460449430795486
918,5.502933257273884,3.3627555992256237,5.1289584146169265,1.7464109730194697,2.793462554770351,0.0,0,918,0.43418877605172906
919,5.019611018428566,3.532680600667936,5.151858816727005,3.6039155054366545,2.9691665192108148,0.0,0,919,0.47501345404343165
920,5.157641169321011,3.532680600667936,6.175128596049852,2.7415177121129175,2.793462554770351,0.0,0,920,0.4778994883946141
921,6.641909670422694,3.3627555992256237,5.4033975837229695,1.7464109730194697,3.347805257759652,0.0,0,921,0.4802853852225595
922,5.019611018428566,3.2534569567348117,6.641909670422694,4.393129248269142,2.793462554770351,0.0,0,922,0.5177502829362229
923,4.978091748990298,5.540214273353343,5.650037551306094,4.393129248269142,2.48555668855391,0.0,0,923,0.5398985840179247
924,4.978091748990298,5.222825338081148,6.272153050444717,2.7415177121129175,2.6778122174076993,0.0,0,924,0.5128502912523327
925,5.03549406003522,3.2534569567348117,5.699790586503194,2.9021101016434363,2.793462554770351,0.0,0,925,0.46112378132460025
926,4.978091748990298,4.382933481163254,6.641909670422694,2.9021101016434363,3.5573102671766508,0.0,0,926,0.5262020338952509
927,4.645967886997048,4.413739527944428,5.650037551306094,1.7464109730194697,2.94771809994678,0.0,0,927,0.45455420246124384
928,5.609848461190396,3.2534569567348117,5.05155391093132,4.393129248269142,2.48555668855391,0.0,0,928,0.48710857251914574
929,4.957771764610703,5.100834813702538,7.389722646825892,2.7415177121129175,3.5573102671766508,0.0,0,929,0.5562997410705837
930,4.957771764610703,5.100834813702538,5.525186064121011,1.7464109730194697,2.48555668855391,0.0,0,930,0.4642030299180561
931,4.67055987517944,5.100834813702538,5.73393880891504,2.9021101016434363,2.48555668855391,0.0,0,931,0.48943840099863917
932,4.637862837359992,3.3627555992256237,5.691378346686994,1.7464109730194697,3.6459678869970475,0.0,0,932,0.44706964869359433
933,4.978091748990298,4.382933481163254,5.481018480845443,2.9021101016434363,3.347805257759652,0.0,0,933,0.4940991996864286
934,5.417203383248,3.2092504806153417,5.609848461190396,1.7464109730194697,3.6459678869970475,0.0,0,934,0.4598205236446245
935,5.417203383248,4.70401517236492,5.4523071842039155,2.9021101016434363,3.347805257759652,0.0,0,935,0.5112348618512145
936,5.342856041787918,3.3627555992256237,5.4033975837229695,2.9021101016434363,2.9691665192108148,0.0,0,936,0.46805719719350264
937,5.674699605540364,5.046180738832468,5.100834813702538,4.691378346686994,2.48555668855391,0.0,0,937,0.5387652525047817
938,4.637862837359992,3.2092504806153417,6.641909670422694,2.9021101016434363,2.9691665192108148,0.0,0,938,0.47695938100052837
939,6.625790005059417,3.917970756552728,5.813862353211989,2.9021101016434363,3.6459678869970475,0.0,0,939,0.5365878316803817
940,6.641909670422694,3.2092504806153417,5.4033975837229695,3.782252746695167,2.9691665192108148,0.0,0,940,0.5155109389343338
941,5.046180738832468,5.019611018428566,5.57848429028106,3.83455474836509,3.5573102671766508,0.0,0,941,0.5396435117829201
942,5.157641169321011,3.3627555992256237,5.291094614098177,2.9021101016434363,2.6778122174076993,0.0,0,942,0.45426230720510136
943,5.157641169321011,4.382933481163254,6.362755599225624,3.83455474836509,2.94771809994678,0.0,0,943,0.5314318265895837
944,6.658211482751795,4.319981575535332,6.641909670422694,1.7464109730194697,3.347805257759652,0.0,0,944,0.5321045229532493
945,4.9179707565527275,3.2092504806153417,5.05155391093132,3.83455474836509,2.48555668855391,0.0,0,945,0.45677996170368834
946,5.112018552195214,3.2534569567348117,5.175128596049852,2.9021101016434363,3.347805257759652,0.0,0,946,0.46361173924579885
947,4.993521789559904,5.019611018428566,5.650037551306094,3.782252746695167,2.9691665192108148,0.0,0,947,0.5250830782548163
948,5.140363177889176,3.917970756552728,6.96789598188441,3.6039155054366545,3.5573102671766508,0.0,0,948,0.5431882007938671
949,4.993521789559904,5.019611018428566,6.658211482751795,7.658211482751795,3.347805257759652,0.0,0,949,0.6483685033394634
950,5.417203383248,3.2534569567348117,6.641909670422694,3.6039155054366545,3.347805257759652,0.0,0,950,0.5215621847218425
951,4.9179707565527275,3.2092504806153417,5.481018480845443,1.7464109730194697,2.9691665192108148,0.0,0,951,0.42925284410810643
952,6.641909670422694,5.019611018428566,5.481018480845443,1.7464109730194697,2.6778122174076993,0.0,0,952,0.5052219182862968
953,5.163446791002217,4.699790586503194,5.1289584146169265,2.9021101016434363,2.9691665192108148,0.0,0,953,0.4887466824453257
954,4.9179707565527275,4.413739527944428,5.73393880891504,3.782252746695167,2.94771809994678,0.0,0,954,0.5105831247398215
955,6.641909670422694,6.96789598188441,5.650037551306094,3.6039155054366545,3.6459678869970475,0.0,0,955,0.6210155562739343
956,5.112018552195214,5.019611018428566,5.625790005059417,4.393129248269142,2.6778122174076993,0.0,0,956,0.5347760671751493
957,7.25966210626152,3.3627555992256237,5.813862353211989,1.7464109730194697,2.793462554770351,0.0,0,957,0.4913863460946979
958,6.625790005059417,3.532680600667936,5.459431618637297,1.7464109730194697,2.793462554770351,0.0,0,958,0.4722150670477358
959,5.03549406003522,3.3627555992256237,5.284753087224351,3.782252746695167,2.793462554770351,0.0,0,959,0.4745797363229301
960,6.641909670422694,4.163446791002217,5.699790586503194,1.7464109730194697,2.9691665192108148,0.0,0,960,0.49711565327148793
961,5.046180738832468,4.163446791002217,5.850856560694191,3.6039155054366545,3.347805257759652,0.0,0,961,0.5156568323149128
962,6.641909670422694,6.96789598188441,5.601943263105049,2.9021101016434363,2.94771809994678,0.0,0,962,0.5870912775365311
963,5.140363177889176,3.917970756552728,5.813862353211989,2.7415177121129175,2.48555668855391,0.0,0,963,0.47084453028908907
964,5.169275869804414,4.163446791002217,5.742603670042167,1.7464109730194697,2.94771809994678,0.0,0,964,0.46311829359506457
965,4.9179707565527275,4.699790586503194,5.813862353211989,1.7464109730194697,2.9691665192108148,0.0,0,965,0.47196734783767297
966,5.169275869804414,3.3627555992256237,5.625790005059417,6.641909670422694,2.793462554770351,0.0,0,966,0.5526929995431736
